0.85641211
0.6434641832947668
0.29684955066652674
0.11703520332305026
-0.01833438298859147
-0.06358888964380698
-0.067391986
-0.067391986
-0.10431015537474224
-0.19501319937167855
-0.27399671315548213
-0.36454605864882106
-0.4655678283974399
-0.5465909214473079
-0.5432750459031102
-0.269681461994205
0.2516869899635962
0.7916408514325879
1.111646123107237
1.124220411338056
0.8739142986161411
0.532998489278486
0.19442574513704292
-0.02025698547151107
-0.14873192792146298
-0.17607482
-0.17607482
-0.19380278669387913
-0.23226289776639852
-0.2865728474332835
-0.37837918456479097
-0.4761280195125437
-0.5876175296038744
-0.61080616
-0.4940286727880584
-0.12135984359012497
0.39865119670531163
0.8786661315883195
1.0462645773470864
0.8952438316921292
0.58187053879225
0.23910222461976477
-0.023421708691261867
-0.1851515261601116
-0.2670142064554876
-0.24209449244235678
-0.2350010431572272
-0.2685484150443785
-0.3307528709384927
-0.4002414622332919
-0.5037115624544044
-0.5980706757535619
-0.6367273094748681
-0.4611909146206117
-0.03373658423627979
0.37395298407118094
0.7417163477999358
0.8292794205803252
0.8931523573350268
0.37697437266691647
-0.2411041499892843
-0.6965768882853094
-0.9524999236608117
-0.9799860643911503
-0.9394467428494963
-0.9731171106023285
-1.0492275323864981
-1.1935325540970216
-1.340532103176708
-1.513059148786959
-1.6266430068638247
-1.322804268082442
-0.47996724883669895
0.4861723457591098
1.172827655955027
1.312454471718284
1.0397226798722838
0.5682771824893984
0.06319842610152915
-0.41296336901074565
-0.6948041415174564
-0.8013344594080469
-0.8274511642672001
-0.8384640447084313
-0.9198749191621078
-1.0573486229976419
-1.2620038253128254
-1.4244082981431547
-1.522506360938061
-1.2626591884703673
-0.665622373851874
0.33600719612611124
0.7257779548276484
0.807887451071002
0.6120525414668415
0.22911071769560817
-0.24975322918903198
-0.6692190935927795
-0.9388718713031559
-0.9684627644349202
-0.93685466
-0.93685466
-0.9401385845980234
-1.0351993089046965
-1.138436387898583
-1.2254249001814974
-1.198816954331142
-0.809363637071515
-0.1038583332963376
0.5475936138381086
0.8613040856406384
0.8024266595870946
0.49891633002792
0.13673726514565757
-0.19388399278473079
-0.4161909897988528
-0.4833569329225838
-0.50212332
-0.5135400185850789
-0.5967802301884582
-0.7126854416712519
-0.8209632122978895
-0.9345521230888089
-1.0162216046361203
-0.8758546278905006
-0.4216475257730227
0.3378861535415346
0.8639540436679186
1.0005410713566711
0.8655404928734443
0.5537722183855927
0.22820415089000187
-0.04954512635710574
-0.2598547297854376
-0.32296769466640785
-0.33909907
-0.35151881675940294
-0.4089279937530764
-0.512054347894442
-0.6558387898958123
-0.7804037427846182
-0.8513919771166355
-0.8091597239595033
-0.30672045751446675
0.20714950872838184
0.791607021960033
0.9648384649587709
0.8343925278265898
0.612571765399323
0.30967194116190744
-0.10933118172747364
-0.269036075336897
-0.4386434998651957
-0.44778191
-0.47010293455027047
-0.5617368939665423
-0.67286771230842
-0.7855066981301898
-0.894716419112246
-0.9986106685489539
-1.0921653799809479
-1.0267823951956843
-0.6230402974028678
-0.047704414297906034
0.42094983228032207
0.6859559965901186
0.58296515274418
0.33927843101889804
-0.0055439024865844705
-0.31686948173476825
-0.5216788125502788
-0.5991574850369991
-0.5923462449480765
-0.566668535646042
-0.6229948433110485
-0.7255337642448539
-0.8502758758435186
-0.956584229957427
-1.0632373026024349
-1.1682646651939514
-1.2248541401919717
-1.019145690049041
-0.46739857644710503
0.18221824397452696
0.629612254750153
0.7677316297687765
0.645164975229369
0.3646469740693601
0.07090302446994194
-0.16058140824906494
-0.29626300154856605
-0.33909907
-0.35405099743591867
-0.39607728271330384
-0.4491728480164689
-0.530088884843539
-0.6373980810984677
-0.7430394735171345
-0.8273365603724786
-0.9091689743012977
-0.989093943464684
-0.8939424597001905
-0.4980922790317657
0.1679419152808393
0.8536576032845298
1.1489055594832494
1.1120792084921913
0.8577365636481399
0.5908259047644622
0.3379819038615617
0.04902324817535724
-0.15309303239468536
-0.21891021968522018
-0.2416630461505735
-0.2804869936307978
-0.36544043118818537
-0.4976029932507201
-0.6161824806191714
-0.728308801302131
-0.8472784934750404
-0.9557159682554325
-1.0140840415097065
-0.8415069010003956
-0.3297790028847304
0.39069032703690926
0.9013305264262944
1.0292936702851332
0.8795861008573171
0.5944486291151438
0.2836366465841078
-0.027735404737577324
-0.2183869114853531
-0.30133661014412516
-0.3476279767777032
-0.38050366650737777
-0.419283566268492
-0.48454566070294647
-0.5778976899252503
-0.6888302187338278
-0.8335967125360075
-0.9488176674335711
-1.0297390506800879
-0.94418108433723
-0.5491535870319459
0.10068053051613907
0.7016774733330774
0.9398741987023327
0.8501139648430402
0.5265646958850351
0.19147459078322585
-0.10397490901213309
-0.3504943502685656
-0.46359422483332574
-0.4951692010990134
-0.5331801520772418
-0.6236542273129503
-0.733843448432309
-0.8487573083197342
-0.9587316678579015
-1.102993281538475
-1.2316176740096212
-1.3428039087353798
-1.3331852816132426
-1.0019930429905657
-0.3822841892975215
0.3697227270560353
0.7463772380849459
0.7851179760450648
0.5782327222024833
0.2406845888556557
-0.06980701044278667
-0.3480219896845388
-0.5244356553792603
-0.6076995734217764
-0.6544657907742623
-0.6735950899110816
-0.7203275003005272
-0.8211364416090375
-0.9480390549788665
-1.0852084755962055
-1.187460280544679
-1.295868017636866
-1.2987832618822737
-0.9672946202749336
-0.3167541822570915
0.28434522476750257
0.6897704504433635
0.6561497109459995
0.3758494435057914
0.06976182359491151
-0.28342686279684337
-0.5337880642037116
-0.6969882732075627
-0.71948899
-0.7312110369374241
-0.7781846196727902
-0.8593260026278399
-0.9312755685126867
-1.0296410231515016
-1.1293621706361694
-1.1935640661270832
-1.1979419219284295
-0.9148857204488896
-0.2589663610513776
0.39480116552030076
0.9235827288623415
0.9667115186464164
0.7236919846638336
0.3532304961218969
0.05692430291496653
-0.2319646180841807
-0.3847752996629363
-0.44354032648823916
-0.4560077168242456
-0.5732268526228435
-0.783161165883304
-0.9352027137673644
-1.1196483466673348
-1.2417560464840391
-1.351530957509015
-1.3608739747365564
-1.0458413975301109
-0.3005852205753633
0.5540355035568489
1.128153654813426
1.214786662345916
1.0061314443563008
0.6895535331176353
0.3454315989962611
0.0655417049328384
-0.15991395777030612
-0.26096564215075146
-0.28475766
-0.28874528870965266
-0.34770893990698015
-0.43810400657280374
-0.5463563473096971
-0.7046029064203009
-0.8594818237414084
-0.9070602017669428
-0.5850700101471515
0.1869582409397063
0.7932683233136518
1.3669900406620314
1.3376188332465455
1.0455696620867925
0.5932804589212334
0.17599449888643146
-0.13896048414580695
-0.35255438127234956
-0.4511362952347465
-0.48326348600429575
-0.5082005515863693
-0.6012847120224957
-0.7172278264241723
-0.8697887786125076
-0.9886765252433899
-1.1316533335493901
-1.0983894606175588
-0.6673774627334385
0.0922980885714193
0.7351853119917375
1.0526623611515518
0.9619630451265476
0.6071673593960598
0.21646550385077734
-0.09190880409885074
-0.3376084511609046
-0.50212332
-0.50212332
-0.506950290692893
-0.5486229007062924
-0.6307850899570197
-0.751363828486412
-0.8925495141907017
-1.027699896893274
-0.979313940727529
-0.5317680886160345
0.10511557341180039
0.7294677653167141
1.1613133010358374
1.0519379021252555
0.805374887529919
0.3521244231389219
0.07606561566590629
-0.12984388529176194
-0.23041624
-0.23904970595236255
-0.2700385022571502
-0.3205354759485335
-0.4020799563335001
-0.5022829632725261
-0.6114304780759982
-0.6987710700420009
-0.5905014082058094
-0.09360445629806324
0.7661378046051294
1.3724478949486285
1.6548456858128782
1.5641297620054824
1.1342926324372797
0.7878297464397792
0.34537704093460875
0.13727009073472474
0.029803303596425357
-0.026333991641383094
-0.07034493881252961
-0.12627991566436927
-0.19149823785097228
-0.3616483788951538
-0.484000226327782
-0.5477787325566629
-0.35281728438074245
0.30666085158183737
0.989107111615042
1.4846013699082778
1.5341831311972038
1.2458199897159834
0.864114831124246
0.43103620768825857
0.11272048242957733
-0.1258034079877963
-0.26854124999364176
-0.3347787640533105
-0.40983128498319155
-0.498248933679644
-0.6449226573028626
-0.7616618546881686
-0.8845271605212376
-0.8280137772025115
-0.4598969428986135
0.41345422441029533
1.0280104151230136
1.4382065215950282
1.353810286408755
1.004790597161562
0.6262348716268492
0.27317879978065407
0.02438103615631186
-0.12532969838335795
-0.17607482
-0.18910779405558303
-0.23858435341985934
-0.32416514837252886
-0.444422339396524
-0.6210746448815632
-0.5589818666038855
-0.11322290060325146
0.6113485222557322
1.249704698930519
1.4597583804617444
1.3238299594261553
0.9155641932669266
0.4980836522019391
0.15510603268378323
-0.13178524552948453
-0.2927173936481704
-0.36845057101730844
-0.40513770275179267
-0.4482828304698769
-0.5344794892029228
-0.6376588949495201
-0.7247677178924308
-0.6730037580187442
-0.2880696209018123
0.3332557847124624
0.9840386776505508
1.3273360347671685
1.2427055478686464
0.9294915558125465
0.5264627344321708
0.18836722187018512
-0.06368903328864806
-0.20774045800676696
-0.2808682727048635
-0.3393114654011486
-0.41563111663942315
-0.5204334624026844
-0.6477930857681096
-0.7723457367425751
-0.7327370263149551
-0.353466588998328
0.20540993775904892
0.7900974649046767
1.1257692231481387
1.0584251166746526
0.7574197794014814
0.324728057845894
-0.029090965315372613
-0.2626201449740712
-0.404540126735947
-0.44468488375527754
-0.47639609833735497
-0.5350629407490088
-0.6309382971147205
-0.7431689252035892
-0.8610485104191552
-0.86589471087355
-0.4925998940848044
0.09289513436310115
0.6888309017635994
1.0324774764423925
0.9663238136982605
0.5855916905071191
0.1888035311052364
-0.14200353839282
-0.3392520350406336
-0.3903837855719138
-0.39344049
-0.39344049
-0.44331861820115964
-0.5302746423899466
-0.6434068554977658
-0.7157998378904191
-0.6017863161088298
-0.1647016396220028
0.38983688151702184
0.8396196533888582
1.0466071
0.8231075318546633
0.4099532794087605
0.06801610237501679
-0.24159074053042334
-0.40953109236540364
-0.493765622006948
-0.50212332
-0.5107535916025235
-0.560115725256019
-0.6470927186967423
-0.7562621385310335
-0.8483922482597122
-0.7136236096598352
-0.21740875588803088
0.5487442357858099
1.107024413983398
1.308535760032521
1.1258562989706267
0.7922338323947047
0.40309664561545283
0.09553104982210808
-0.13214525619039597
-0.26198333714609673
-0.2816438208317112
-0.29595981409352373
-0.34498438467492387
-0.4428407579894578
-0.5824220522168364
-0.7493497592629534
-0.7525013011702795
-0.4110895253414172
0.24356165978090855
0.9167614091261003
1.1397350187821649
1.0021087626043974
0.6322779082928526
0.20840346439370339
-0.16062446870581404
-0.4219588366884898
-0.537678361013367
-0.5561234726010716
-0.5671576399330114
-0.6170549923437312
-0.6951413602345122
-0.7950414084350174
-0.9129687201275168
-0.8628345772012774
-0.4500760446435399
0.1899347731457775
0.8907475181147715
1.1059129012437678
0.9379322754529607
0.5360884222588208
0.18031151762181102
-0.12703717311323606
-0.34093163183738406
-0.39344049
-0.39344049
-0.3939620934907246
-0.4305257792830208
-0.48188269817715534
-0.5955658332428105
-0.6768031655726682
-0.4603951300952905
0.11593237412256467
0.7722069958165114
1.2269395226775734
1.2708987254430812
0.9546835451360755
0.5073250271596612
0.10118980527849622
-0.20948077210949148
-0.3719768266371494
-0.4514294544899194
-0.4834372099540771
-0.5064101886174313
-0.5673239734805076
-0.6595765568126004
-0.7538694927207318
-0.6622805290901506
-0.21091527206756694
0.4489868708940838
1.1006347149792906
1.264505499240898
1.0966801254990843
0.714397463346248
0.31735157191192037
0.015421131760731906
-0.2485177025202692
-0.3831963778163413
-0.44778191
-0.45147768695545365
-0.4947506737126026
-0.5865821625232063
-0.7112437766916303
-0.7171171254627655
-0.47892388536231734
0.16773605532539382
0.6483329116942906
0.8706346293396832
0.7190423246286979
0.32155509648696523
-0.011854486169972495
-0.40991755036034894
-0.6224715987745849
-0.71948899
-0.71948899
-0.7282169747795563
-0.7641662874295159
-0.8365206275220949
-0.9313524077001185
-0.9246050391252956
-0.6284960552217895
-0.09429925048822968
0.4101894642047881
0.7195126171856538
0.7332192240765946
0.30039186777219995
-0.5536806080480358
-1.237123362477554
-1.6807333155969817
-1.7270734759683115
-1.645428493319866
-1.5602548924068231
-1.5645234612580559
-1.6736841306441854
-1.8168120382455506
-1.8637503805214115
-1.5185295349738401
-0.4010357551828166
0.616716341484391
1.2839429646432445
1.0398597584826554
0.24252832937219668
-0.5066110072927625
-1.19686282234152
-1.7120067534435748
-1.8309942103365677
-1.7957722026769896
-1.715069704882506
-1.7191016487903497
-1.7887654991251918
-1.871527
-1.7612543074980163
-1.3499670749905976
-0.24241747926906437
0.9307803276824725
1.6482680141138015
1.5032164750820727
0.7343961775318595
-0.005609456666451906
-0.7315796215438812
-1.1547940341738083
-1.340803262688983
-1.3832468658573425
-1.3469731639584772
-1.340641517090543
-1.4389184070431384
-1.584614045713392
-1.6331451583802565
-1.1507110107179843
-0.07632572657424319
1.0479124366815982
1.6965141960693984
1.5505384563819098
0.856688276728449
-0.141952460850581
-0.9219711387956521
-1.3961078366420652
-1.564513055925763
-1.5122747424931329
-1.4213768330392695
-1.427137209156164
-1.5585258114924567
-1.7511850027312597
-1.8030715127991523
-1.3064570654641872
-0.17594010818910377
1.0228572364293638
1.5566820096416194
1.3759169383465515
0.6469394694339191
-0.20249671585201795
-0.989772191451932
-1.570448491410546
-1.7248052
-1.638154366239309
-1.4950040946565732
-1.4373314260029546
-1.4633464031211507
-1.5450293685196894
-1.3705153574899096
-0.5735279694508617
0.4914637566632481
1.5238099175134128
1.8839465969075169
1.4476093805556987
0.6380691732566319
-0.3545167178296461
-1.0421798714833375
-1.4114161516343797
-1.485662823267887
-1.4109785387127032
-1.389390119812447
-1.4558210913715974
-1.595357474464678
-1.6142395312625015
-0.9909314054852305
0.16596207431519439
1.6353783105915771
2.4427464153972966
2.298305116889567
1.7000394777672
0.8764532598569496
0.017203361744599466
-0.593799296191499
-0.8789774717706984
-0.9019547758706463
-0.8593392672241765
-0.831847512433753
-0.8825092216475668
-0.9766055766123742
-0.6759645065117122
0.18563428809774996
1.5661043704054327
2.6390024077409415
2.843371733088264
2.2889772307742415
1.4603347829457092
0.63532265949591
0.03269269904134303
-0.4599197241223705
-0.6687825084974699
-0.7545761789748455
-0.8156296128938206
-0.9334777172209227
-1.1005624491026245
-1.1387332569796282
-0.4924490443276065
0.6995269672202727
2.081451421752618
2.627247191509406
2.262905618794913
1.4596955026275058
0.6646155080872154
-0.21317553908526615
-0.6470284328399135
-0.9067568041454064
-0.9045874912166395
-0.8842952385794919
-0.9509522820078921
-1.1240855518081374
-1.0570080751982012
-0.3099380954890488
0.8295901974774211
2.041472656233632
2.4760871234879644
2.121537346108923
1.332462391150307
0.40656363120767447
-0.2024737588382663
-0.5640269104651225
-0.6987431516606255
-0.717097220480252
-0.7291915368100644
-0.8331115791012853
-1.0114474721855378
-0.9950013892347613
-0.24117306437543606
1.0090355624730607
2.2364695226780285
2.616067088564016
2.233134442710071
1.3884187383847366
0.4465084220244617
-0.23582620056694714
-0.7547828666610812
-0.9629098643799614
-1.029813607508208
-1.055635591375693
-1.1389462919110083
-1.2807260593347625
-1.3158308268432033
-0.7876298819149237
0.2072757988287629
1.6716010382821107
2.2550621180167085
1.9875465626180042
1.2774361696607317
0.4648243853524752
-0.17180119277206718
-0.7119956151320549
-0.9736977808921635
-1.0444339618180603
-1.0455375
-1.1456471054260557
-1.327540126153436
-1.471556914477728
-0.9692953217482494
0.05305638277283236
1.286073823601703
1.9022294595723255
1.7663048123143363
1.1177042111562148
0.3452249825394742
-0.3147236766475486
-0.942257842538359
-1.3054361664869343
-1.3707311113088485
-1.3363700827612517
-1.38037837621709
-1.516411113353978
-1.6636425057139386
-1.2773014086835963
-0.2567284019582954
0.8371731779993392
1.3721583542168192
1.2517540536744598
0.5151985338105824
-0.3039263816189274
-1.1316817306960123
-1.4398318393605483
-1.5841322828838547
-1.550155775088528
-1.4985289230204144
-1.486237519249932
-1.5271163932500231
-1.5527543015063625
-1.067083215632704
-0.10799276118251963
1.022425919838361
1.5878816121928165
1.4086933680106992
0.7376674586066156
-0.07382854452424996
-0.7290922878200553
-1.1705484047763164
-1.2874796921586642
-1.2578379323931252
-1.228246982113595
-1.2916451046960271
-1.4023509011394766
-1.3873453636094832
-1.0239781766300178
0.21508539562852808
1.2217215732165814
1.7190988003401602
1.5099282695671359
0.8081421840504741
0.045918901029442016
-0.6074559061882824
-1.0757563102537138
-1.2426003822704301
-1.2541951170797851
-1.2243617619320735
-1.2272210269180093
-1.3160818091192914
-1.40702408078342
-1.1291746744816653
-0.27836171339439314
0.9754569638503279
1.6763044321936789
1.7171332715336383
1.1572498870591577
0.39997432132950184
-0.5535612373309302
-1.1965994158156352
-1.4080027155745527
-1.449466552936578
-1.4364932407502133
-1.4769184519742606
-1.5779635743699185
-1.7693015260331868
-1.6594327568459502
-1.0554543596157762
0.2906853151526598
1.2232731570588153
1.4007094658850292
0.9402667847020835
-0.05830771623212644
-0.9114143331304337
-1.5724472442952295
-1.8566082578393894
-1.9027922070096341
-1.8729618213848636
-1.872678839724184
-1.8878295
-1.8878295
-1.8878295
-1.6372234680410302
-0.6868219789009211
0.3295092831894717
0.7425018840065404
0.41853748021397374
-0.30926896354278965
-1.1147174813600562
-1.7160347484785252
-1.9150002
-1.910419578006946
-1.8408062791943034
-1.7531714827570253
-1.7540874439571537
-1.8387573933325938
-1.7454471995847303
-1.214342953088962
0.015275019545250568
1.4041049556467855
1.933218928810043
1.7729036202132702
1.096585931333426
0.256452930019485
-0.49583066181950763
-0.9800469920798434
-1.2212811054566775
-1.229962950334005
-1.1464779746883573
-1.1162430145413913
-1.1995725918600797
-1.2769976671494323
-0.843245719213011
0.11701993883352624
1.3818317919230587
2.210903485833351
2.0850818360465246
1.5142444034631057
0.7721005973348598
-0.04121609285551331
-0.6235468590798225
-0.9638399233622735
-1.0589229100553332
-1.0703844438165286
-1.1206648766335316
-1.2635257401023008
-1.4188646004158936
-1.230380032022338
-0.37815006792511874
0.7595505882036206
1.6177369567720739
1.640255343274822
1.0675733642785423
0.16288063336199143
-0.8110493251070091
-1.4643655655068777
-1.7804449774786704
-1.810678839512747
-1.812802166035251
-1.885944188051016
-1.9150002
-1.9150002
-1.9150002
-1.4524851094262075
-0.1290124375672923
1.0680297384295172
1.3534847778274866
0.8114036320046948
-0.1280300662383621
-1.2683518595411927
-1.5672151
-1.5672151
-1.5672151
-1.773813973369746
-1.7886608073547532
-1.6593252275088595
-1.1496152527532582
-0.5283711491607488
0.2813703220208602
2.008156192625505
2.4915500557851082
2.9034224842849925
1.2114959373445036
0.6579040864207325
0.1937892716699104
-0.31022885045929915
-0.4735538751220266
-0.49517867880402666
-0.42406707340391436
-0.39626562396687226
-0.3284942850432903
-0.09788355113751726
0.16129832409632028
0.4204801993302142
0.9948008222986835
1.5793766912163902
1.7235583384790378
1.4197560204880106
0.46021872879547443
0.1558743626773876
-0.012925499409513208
-0.18172536149641405
-0.28475766
-0.28475766
-0.29767576639222
-0.3430847639373037
-0.43447026863014243
-0.3190125030585005
0.6599712408527907
0.9246822218968322
1.1158410772142762
1.1265573250381764
0.8263455508378019
0.5261337766374926
0.25647175059507465
0.03905101323253586
-0.316703594600204
-0.39966855121704525
-0.42163806541892507
-0.44360757962080494
-0.46557709382268
-0.5247720651524614
-0.44148500649901223
-0.008406377484248384
0.7181992829409485
1.3123203768229632
1.4807699652558766
1.1900490286760215
0.78336287452317
0.2013492766297595
-0.30521784468636165
-0.5121024398148938
-0.6105353389451411
-0.5672274742106598
-0.5038918368461346
-0.5359106627667569
-0.5955626035850581
-0.5569950237344934
0.021116366268015968
0.7688987923760844
1.3677028277621808
1.5240154657692617
1.2955103883879908
0.8256507924409322
0.2770700994483021
-0.16293366536884385
-0.40950369860627683
-0.4913257734004877
-0.4692820099300771
-0.44778191
-0.49574902632539786
-0.5623258685954388
-0.3746729009498196
0.2544367594818814
1.1280734884174235
1.6406101377164526
1.692253672293707
1.3746771263837072
0.7542868041535935
0.2576755456546783
-0.12280498945732404
-0.4148265573530652
-0.44778191
-0.44778191
-0.4507505380007037
-0.494209244433066
-0.5434115015948329
-0.44197047545762497
0.1273407108172942
0.9506909845539466
1.6323192252126058
1.6638201574150888
1.2698678099713572
0.7298863308710182
0.1639635730410885
-0.2777397155669817
-0.5812755181880891
-0.66514758
-0.66514758
-0.6743273567533528
-0.7298711508058893
-0.7723052687041582
-0.6653981107728719
-0.16081844262122014
0.6820265162197032
1.3752097901247589
1.504925303912987
1.1716508816090037
0.6355320227681643
0.07697653761304411
-0.39561917153198867
-0.6505005934573992
-0.7441334927993447
-0.7098631900944554
-0.6723856018584934
-0.672324094403784
-0.704339621282481
-0.5030330266531974
0.1429316940395487
0.9641167394613146
1.610699571099523
1.693898497866163
1.3608855699251294
0.7732439817474834
0.19940280958626183
-0.2135852897579505
-0.4416017655266407
-0.4925642186993999
-0.44778191
-0.4548777657863149
-0.4973261277409405
-0.5281092409582232
-0.29112941264351844
0.35673603264617093
1.2099035162327607
1.785932829657846
1.8555958058331843
1.4810390444344597
0.9317903649192807
0.3914418753957564
-0.05110701036899848
-0.3146991399653383
-0.39344049
-0.3744459962662724
-0.3499595221495069
-0.39847877073788573
-0.45782028028837685
-0.17340355010682718
0.5209443766376565
1.3255381425515773
2.020591322965002
1.982983458288254
1.619658383708513
0.9663460620796039
0.5116134743981215
0.003587060296037975
-0.22853210633819557
-0.3580255952694124
-0.39344049
-0.41677586628277274
-0.48557559689736
-0.5359435215792628
-0.42784791385513915
0.24969387969243154
1.103097447663043
1.7596001570113775
1.833613240011612
1.46743357896962
0.902442956548824
0.3143108355255972
-0.18030262157147903
-0.4637676330121778
-0.5663274989197497
-0.5687471037371197
-0.5469866799145744
-0.5818165055229858
-0.653139749094728
-0.47439118740984926
0.12358421887998688
1.0421225617777525
1.759899096705805
1.8869414520245111
1.6136104309599133
1.0794512865230257
0.47513331591649455
-0.0016724563568797368
-0.32396622755902965
-0.4795219098953004
-0.4578679775280645
-0.4499622052283112
-0.48810808356012797
-0.5426471693597398
-0.49359953181904526
-0.01721304364851073
0.7672165540032384
1.9795175932305888
2.0389050674044498
1.7373753117553474
1.2932179160999147
0.5426365981471247
-0.021147417152349288
-0.2665730745365732
-0.44778191
-0.44778191
-0.44778191
-0.4979542592489119
-0.6003919246799233
-0.4469391569157564
0.14015929754067374
1.1122969006730608
1.8913771402504957
2.1550272106058634
1.9096572348751515
1.4190475024886067
0.8214439885464864
0.2612756420603758
-0.13978016803250465
-0.373648632731957
-0.4394630293841162
-0.4676187875456176
-0.5362213482547267
-0.6288774263771952
-0.5378701814580218
0.04427410114943048
1.0008640188601305
1.6716275208791562
1.9908319473204499
1.7760812920310136
1.2579326888271511
0.589625672351815
0.05908250475901866
-0.27591369664137744
-0.48203764291058204
-0.5173622497868375
-0.5053955092806022
-0.5482459457501327
-0.6308453340755049
-0.5291295088061964
-0.033749316847165256
0.8079401821305146
1.6025824700367817
2.00740057414373
1.7968595320640686
1.3083539523801864
0.6821295370680355
0.17502325772904226
-0.18251642299296816
-0.3234093319503909
-0.33909907
-0.33909907
-0.38276884261349836
-0.4792390933421332
-0.34934778591276666
0.26461158719339783
1.0316575505609413
1.9352398122053485
2.200793852236561
1.97084943927026
1.3939992810114754
0.7625950048215695
0.24643166397882293
-0.1336539695246992
-0.3060381908086175
-0.3368809700234925
-0.33909907
-0.37652140656963295
-0.5124173863305899
-0.46020176263296664
-0.015165447049834913
0.8723621267319545
1.7755313262247336
2.1607750501904213
1.9156396783869922
1.3269247870992165
0.7495671961826667
0.2765755240676396
-0.20922378776877765
-0.35227410990388075
-0.3919056103572368
-0.43104869381693267
-0.4957762759518064
-0.6021036715462922
-0.5812413513542047
-0.07451670077852779
0.8363906392940882
1.6470000478566682
1.942284530422951
1.6881203646107648
1.2064963263646156
0.5974888560649244
-0.016767208198670558
-0.4034179791787189
-0.5765736726319065
-0.6656320740843396
-0.7384360483347591
-0.8218983438431343
-0.9372566599651276
-0.8999597844653996
-0.3333215719138894
0.34956352836923743
1.2466577435351878
1.5288565104732628
1.2490039449522283
0.7134300288930145
0.0808098075549621
-0.5091326526730725
-0.8628135294091108
-1.0328732611807112
-0.9988813157590843
-0.948355445675283
-0.9824741141349113
-1.0478248284513096
-1.078140285416628
-0.649120794689864
0.2102984920672901
1.056969217276745
1.419980671005772
1.1991105943322191
0.6811378934001139
0.11767005998875629
-0.5027517776932009
-0.7586157557072905
-0.9334948678375138
-0.8917987541693543
-0.8467187803652148
-0.8366958212953902
-0.9213802166926143
-0.9342017958935692
-0.4357400963238183
0.3116295641046268
1.1677760109527835
1.5215459590579776
1.2698195420062417
0.7408801868577857
0.17052898980267772
-0.28861095123000036
-0.6278876358866384
-0.8634442187745602
-0.876828574767805
-0.8484700153112547
-0.8489601906654602
-0.9207434116838153
-0.8601658103102622
-0.39238334765345134
0.43024471350596516
1.2400721534402965
1.6251201120907368
1.426210055955412
0.9918444481246774
0.4432637391928985
-0.1422769471048387
-0.49232894136631095
-0.6661841110614922
-0.7075330627902812
-0.66514758
-0.6800268840249563
-0.7623740990341271
-0.7528905735898548
-0.29024165838061233
0.4527618589481668
1.177709379530071
1.5622853539076358
1.3418333311827841
0.8809308619267705
0.22205302523816003
-0.2975143845949202
-0.6531265636933977
-0.8186243916577481
-0.8341425638806588
-0.7901893632658913
-0.7833969252505532
-0.8190828117352311
-0.8248594318056612
-0.3001850461272667
0.45268336695902933
1.2617118093308493
1.564866890365705
1.3129467568332773
0.873079018156056
0.19562838569317542
-0.2624143155438938
-0.6677961707979151
-0.8080502957357203
-0.7713409731069355
-0.7342132486210363
-0.731812632529774
-0.7599101056032098
-0.6676860968089788
-0.161071534349627
0.6496357115150213
1.3879807940630362
1.6740471276978022
1.403167528737127
0.9064863663327559
0.3167731229098215
-0.12881465958862473
-0.45912149655760454
-0.6488356666156042
-0.6632571912624705
-0.6265987262295794
-0.6488920851518682
-0.6923190700271834
-0.630205772014595
-0.14220010120584126
0.7349571547875766
1.4543516465264392
1.7719450512829695
1.5819967836480302
1.0570357666296162
0.44525297739030223
-0.11897487728883889
-0.4309485667976595
-0.5835975855417248
-0.61080616
-0.61080616
-0.6524574451358043
-0.7686404861616546
-0.6543899147822536
-0.08057893691013435
0.7133595419095823
1.6258482956605804
1.835918291505803
1.544537528771274
1.0129770073703335
0.4325067725322434
-0.05976884347916356
-0.39872003347459894
-0.5758769910875575
-0.5937970071903359
-0.5947610920472631
-0.6589658243360734
-0.7557078795411335
-0.7265084366756602
-0.3042427149785511
0.4132882679147727
1.1882421666525353
1.6157662103776986
1.4248242648031615
0.8920154877843991
0.29103402105371695
-0.20637627674428793
-0.5429862357871891
-0.6895142798106229
-0.7037418567136559
-0.6767490210507727
-0.66514758
-0.6972709899343503
-0.6669092060246772
-0.3281127923467465
0.4585861786877657
1.2122015373304262
1.6276935324358874
1.4796271303184656
1.0021364800096986
0.435401462142584
-0.043891653593928825
-0.37766126111606
-0.5306373836476783
-0.55646474
-0.5293994230372786
-0.510463916360949
-0.5398986398715461
-0.6212181320353846
-0.34133247653032234
0.26998062805247686
1.0096437907528357
1.595207478274847
1.6255229883707305
1.1959790380794622
0.6560786246043924
0.1380704050501513
-0.3590741822543059
-0.5790923862086256
-0.6205018446261036
-0.61080616
-0.620571288821929
-0.6967806959857068
-0.7332289019672462
-0.6329597526794191
-0.008685228122259803
0.7800019258988156
1.7200041544608946
1.6964516561912215
1.3111334944559085
0.8583579876787414
0.3333969788244081
-0.1823660813964508
-0.5035458802406542
-0.5775009274906407
-0.5755098699891209
-0.5619459605175225
-0.587930677764294
-0.6908767910209278
-0.6561756291143397
-0.2328080391140435
0.571152159570129
1.4528441562739542
1.7654871910296497
1.5808406777969086
1.1845823907777029
0.5654495719919849
0.12192866949076109
-0.3040213791647417
-0.47330140465877707
-0.5274344665748697
-0.5106426004575209
-0.5228705296542926
-0.5951059394086354
-0.7059457568048093
-0.5381348206588554
0.08847257278213738
0.8916782202060332
1.741975891469834
1.8395663299463272
1.483155336423526
0.9713184168147171
0.3351631581563131
-0.08379842101866136
-0.4141308124597979
-0.4991855158538449
-0.49185668624603973
-0.45844234197530137
-0.4836246761085175
-0.555043833282298
-0.569158441846527
-0.2882002724784831
0.5351530588010965
1.349331300983391
1.820657538985597
1.7827850483094747
1.3280524765671067
0.6776492657720001
0.15621347359097
-0.2145840686576269
-0.40462897358335126
-0.40960217209548927
-0.3602795544137295
-0.34817409
-0.4039844689816948
-0.5440263144575059
-0.4403657235983057
0.3246139312270027
1.1099715898031417
1.7898685780420243
2.0063417004357187
1.7320730033211493
1.0922043955776124
0.5970837229398738
0.08264884445047146
-0.2094264791357798
-0.29892996065129573
-0.33169617428941267
-0.29562072524489935
-0.3500389791019398
-0.4685625221988749
-0.5310962956853295
-0.3695978807706485
0.2439446093238099
1.190476069963974
1.858829388160117
2.055605282453199
1.7919804210359145
1.244820860680992
0.6890077918463345
0.2572498965355279
-0.006552251152926285
-0.12034374427392062
-0.15734344531434805
-0.15087097304092278
-0.22965229955855354
-0.3703179188238772
-0.45890833309159496
-0.30942999073564
0.5706818465475435
1.5605420520671731
1.976527167017008
2.014998537621725
1.6513405647819859
1.2005006244428105
0.5759888739027358
0.2295259719660585
-0.02178696451432794
-0.13625657718333334
-0.17783465102654997
-0.19392603707390654
-0.26886332846839006
-0.418381442363337
-0.5721448989416692
-0.515652515644641
0.08569297202401839
0.9422970862420819
1.768750377386595
2.0059831968233572
1.7719382353371849
1.226395997432815
0.6150046122268512
0.13201496344107988
-0.15788307049758266
-0.22813107884360165
-0.21237388383048258
-0.18836230687260855
-0.2539709088021095
-0.3557803228746456
-0.5174485732734933
-0.5189683248505741
-0.15856347496594825
0.8186129564044473
1.691364312874352
2.130783423208863
1.9612852018657132
1.5297663044696226
0.8910999224628902
0.3761081951031797
0.02277726736325128
-0.10553507572714116
-0.1217333999999999
-0.12626658801682158
-0.18540400312155325
-0.32555388980584565
-0.45917726772263967
-0.5397889663139128
-0.2882222066859032
0.7042398904098406
1.59467005008312
2.1854972718736425
2.1803869954296533
1.7580421727900368
1.160455675417884
0.5881907465531748
0.1443992830175424
-0.05895230623140678
-0.13638182248407435
-0.1697592215630885
-0.19746207109491726
-0.2959359714568607
-0.4842908246580584
-0.6678947746999098
-0.5300077076129374
0.15618093968850655
1.2861711719037836
2.095066070154958
2.305810151156449
1.9879796372822134
1.4056963381206307
0.8022725237913589
0.2690450788031827
-0.05279643389419052
-0.23373156072565499
-0.2842718411501052
-0.32135776456299986
-0.4129036929144902
-0.5630952417072553
-0.7486668036495174
-0.9178696162232435
-0.4897245101405917
0.3810751510238554
1.3796097847248454
2.12330183859872
2.1161127137026416
1.5940071430343963
0.9709826810990707
0.35264030729895324
-0.1731457122007416
-0.4467394366550423
-0.5054865179271314
-0.5100049780243254
-0.5381220300450443
-0.6619927754147237
-0.8521183497058165
-0.9917872860783644
-0.8424148616507545
0.0400279905909624
1.3715243595206663
1.8046029271695203
2.0509375555186846
1.6852476966895895
1.0138922252950675
0.3981020030242017
-0.20242654119958362
-0.5058786403856583
-0.61080616
-0.61080616
-0.61080616
-0.6788287426731524
-0.8247182415314478
-0.9974561308426906
-0.9442881329471795
-0.37940677331696543
0.6640087104109138
1.83333118502363
2.3424806133322895
2.132796102117908
1.5486390804059518
0.7826753149092665
0.12046652772779365
-0.33098634475580707
-0.5601519467132147
-0.61080616
-0.6173944616814443
-0.6578360271324064
-0.7763896999435808
-0.9822945694789422
-1.084757401355775
-0.6323780197342148
0.4716217250625289
1.7198003223805474
2.2928654614170774
2.281587933126056
1.764867512759088
1.1834532226129189
0.44791177544344407
-0.1502468316524741
-0.5064399911963784
-0.6915947828036525
-0.7032900726902674
-0.6903150272963459
-0.7556451020044583
-0.9208083993155044
-1.0133812081481954
-0.5952558498843668
0.32787146351781243
1.4161805593996624
2.2888287233445297
2.4499040188713597
2.044461691325338
1.4156508895536064
0.7259662517275209
0.2760327227191328
-0.10605262412251337
-0.2579162910302994
-0.28216250525231135
-0.30165518780783535
-0.35268156196764516
-0.5000493167838859
-0.6103701629379396
-0.5003096394022769
0.2958540821859701
1.4153726797027462
2.152194397138776
2.1648419380011585
1.7415598446157556
1.143629697211289
0.5012173078481723
0.02476971385059884
-0.19551699585657828
-0.2724700613879612
-0.28475766
-0.3035997553057552
-0.3930701087547179
-0.5870352831247788
-0.5651996483448634
-0.018454600327754034
0.7566942324474181
1.9552836383795347
2.3621263518257374
2.262222360294098
1.7425864130852435
1.0186009904365565
0.459557095303753
0.046144608230813566
-0.27866445740391516
-0.384756820493738
-0.40316143034008367
-0.46356764655727734
-0.592482323309445
-0.7942368667036572
-0.7602546730042661
-0.2858043789981971
0.9757622565016789
1.996384246429446
2.3922790829253513
2.1622969542248724
1.634213638853812
0.917031892438549
0.2892678595685013
-0.07451818746508326
-0.3174494230969182
-0.3401342834423845
-0.36178821580962045
-0.45422580565105897
-0.6169549657424215
-0.7696372005988478
-0.7583474197347903
-0.17369127132196982
0.8201910434451445
1.6616716763698953
2.0721956066989256
1.897023818039008
1.3400504163308598
0.6826644982310807
0.018696376063926434
-0.3152868994581333
-0.5500332378352005
-0.61080616
-0.61080616
-0.692174232627447
-0.8333558418370877
-0.9940277245832057
-1.032795043012689
-0.5284551443053886
0.247043640952893
1.482580330320756
1.8398702024258313
1.7228731651556042
1.2035864049539948
0.6136986351601057
0.026242562901051158
-0.4174200899982655
-0.6291829030257747
-0.66514758
-0.6661740135994973
-0.6761069610589799
-0.7796249821605389
-0.9370307209544748
-1.0598682151084784
-0.7444591801629673
0.015411944337411193
0.9934334394025206
1.7224273749497532
1.86864659385449
1.599114182575283
1.0669054213249927
0.42451990584555477
-0.002283343416269512
-0.2623892869615454
-0.44778191
-0.44778191
-0.47549052110409734
-0.5545554310267641
-0.7487893364556845
-0.9389340960101189
-0.9443613149873098
-0.5723074013466585
0.6426798916221274
1.6421720196444765
2.1862863853894545
2.1522845028138966
1.6673392153530109
1.114365201792547
0.4541027327851906
-0.02625574360821148
-0.25988812366444386
-0.3234865088889469
-0.3414952659814658
-0.3660720843155095
-0.48776074523339885
-0.6761327394394099
-0.874561496931179
-0.9028270519458266
-0.3726629469810652
0.6771686216666157
1.7297952849916431
2.1483890389044227
2.045236210519329
1.5232547843751905
0.8806347886824958
0.31293097546117415
-0.1322437791817999
-0.3417353093342562
-0.39344049
-0.40475443930983673
-0.46104224699421714
-0.5786318359725073
-0.7386369475150932
-0.9788725676346248
-1.101436234009836
-0.636612428049877
0.3197371906337144
1.3292612105298942
1.9760032678339055
1.8941081705171376
1.4414623548209906
0.7557990169423185
0.10104654871360241
-0.3424202671179783
-0.5649029214778556
-0.61080616
-0.61080616
-0.6225791535275161
-0.6899950549143653
-0.8398721902191346
-1.0082692762288035
-1.0869536108941427
-0.774380727639948
0.32757990620779454
1.4814647911156755
2.164408634840478
2.196110557669514
1.7538776638471785
1.1650275443281353
0.597512565420764
0.13722898753500126
-0.1505208409577366
-0.24350833346378373
-0.25758695
-0.3038529145624734
-0.41891795533216003
-0.5890101187273494
-0.832754531451985
-0.9915710957050874
-0.7379443653016254
0.1997389984089229
1.3174006591032246
2.178849123737168
2.3002740611062604
1.899814608456443
1.3182765821658153
0.6300903400590072
0.05865669881949853
-0.33503412786360587
-0.5104326911048753
-0.5751221223974142
-0.6182867998236385
-0.7319070128779792
-0.9244258451642916
-1.154606282458762
-1.355768383584851
-1.1798518040860717
-0.4945152663730473
0.6600499014320521
1.6611813463025542
1.9142137988361032
1.596599669745506
1.0018877271220987
0.3301860728607027
-0.3287691895108498
-0.68934429717353
-0.880073935369777
-0.93685466
-0.93685466
-0.9900726760153172
-1.1237339051367048
-1.386686499192471
-1.567137383394428
-1.5098542022281465
-0.8628038647064618
0.15780631966386494
1.2069458833845625
1.3532870804800985
0.8405675656192495
0.31739072072803276
-0.20578612416352526
-0.6890778944326901
-1.0100910196516415
-1.0628136278871771
-1.088350717104549
-1.0562861105218682
-1.113241017701235
-1.1782027908941834
-1.312170201769117
-1.4307646069551152
-1.2705778539812083
-0.5393446302689908
0.8940917130869823
1.5468658409592724
2.0418643529268525
1.8083600151872667
1.1277274776409807
0.37469190650480877
-0.2543723083771977
-0.5661549674378762
-0.6970849502900253
-0.71948899
-0.7043642396202142
-0.729507310250672
-0.8747251543205832
-1.107423329151707
-1.2659109500134762
-1.0397403141153219
-0.09317933812129842
1.4814481741286136
2.270781973364009
2.208120435709849
1.700109901734126
1.0127267515708087
0.32091187957811707
-0.3977483151361804
-0.8275245365438226
-1.0978044044961963
-1.179150968404674
-1.1689663629304032
-1.2518545984243512
-1.3955616606354109
-1.5484669343851558
-1.203819719554101
-0.1192173582160081
1.2390763630266322
2.4054012563424827
2.718695386507215
2.504639572919803
1.8347185862106417
0.978707882339509
0.29952729137155665
-0.17146595158619496
-0.3658724030504357
-0.44507161476003027
-0.44778191
-0.5352166840405929
-0.7242208719298795
-0.9400090247335238
-0.6944857937297444
-0.043679119797835564
0.94780167437618
2.1915045816625787
2.5368244229386288
2.071978460300782
1.4207931473941042
0.6927994978264909
-0.04835387977693062
-0.5341836367834397
-0.7041430086518222
-0.66734860645262
-0.66514758
-0.7369963947759476
-0.8813312434809523
-1.1107393619361017
-0.9282882833472155
0.00846077897740305
1.1461981044415106
2.084543289352303
2.1906916391086737
1.674264675405078
0.9149981275726197
0.1874260382871913
-0.404000553415775
-0.6869452585235701
-0.7082947751935985
-0.651994555820537
-0.6317410676069012
-0.7467884094930062
-0.9713029195448021
-0.942416571487585
-0.29705826064875873
0.6300462522104
2.0037691546854806
2.3394051023928446
2.1671647041137287
1.569867363573946
