1.6561602999999998
1.1247908121076575
0.44692724460496636
-0.033279288431205374
-0.3567216267230889
-0.5026026739145086
-0.6269094863957022
-0.8531458441283191
-1.197184877973725
-1.5099378724765387
-1.7418891321726786
-1.5682858695829374
-0.31913714059766723
0.6545067969715759
2.034307817398229
2.110378764111343
1.7411845173223353
1.2626053374526003
0.5190128705026652
0.11885199362583071
-0.16578585115815647
-0.26803746500933945
-0.40215964769175105
-0.6392141603221627
-0.9523120386542436
-1.2549013530773978
-1.45611017541167
-1.1353717841678173
-0.06608202180897349
1.2565586836711695
2.124502053275687
2.1802507681705197
1.8556964115664527
1.4574963721630563
1.025260064737589
0.57811064459371
0.2660597286750641
0.06202789438963192
-0.1292536062571597
-0.4162427691122769
-0.7984406936574828
-1.1011198738520225
-1.1993035467574704
-0.4796744481151996
0.5749245079151135
1.404436533258633
1.7065888311406474
1.5422528526246693
1.2162153030412601
0.8069910950662184
0.3417115567213719
0.02195318916384857
-0.13750421134661497
-0.2664390332904701
-0.43672513968850424
-0.6840257710876079
-1.0034744572967862
-1.095791377528028
-0.6960174006658507
0.17410120977794552
1.0410390171151993
1.4091085948849953
1.2900184306105964
1.0223289811010279
0.6463259669006698
0.19461524741202366
-0.07075786615522278
-0.25734490291714485
-0.37904927543695033
-0.5355149578234334
-0.7894352946609449
-1.0368322620522856
-0.970132838037555
-0.39244420165235205
0.4363888757161466
1.047149965122124
1.2889891893694752
1.1379658650738824
0.8336821110694508
0.5154197719423124
0.1354367917986011
-0.01746303661757099
-0.1123892989725941
-0.27420543397689834
-0.43756054664697563
-0.7242230779763646
-0.9488457240787924
-0.7890130484942394
-0.16463647552968064
0.710772352405748
1.1986516072347668
1.2176563214484306
1.0465824128504533
0.8358049397242742
0.541644928656086
0.26778421326864627
0.05532372920939177
-0.008126885820756019
-0.10877458328711646
-0.2765669601865918
-0.5456889732384638
-0.8227042154457661
-0.744029050257514
-0.16071717574614774
0.5582102911401916
1.051053777583282
1.0587377656495893
0.8928102830384353
0.681432968718046
0.3859490525543441
0.1394997328182102
-0.015656818904169558
-0.08484239432084875
-0.19302184020328172
-0.35779334662321083
-0.6165417380089355
-0.8502697239767909
-0.9517313062146486
-0.7191871743058296
-0.05395189952699303
0.6559749155148349
0.8888950284475421
0.7351506726091156
0.5623543564313146
0.2758066488035172
0.02223687022383869
-0.1349505211484756
-0.2068121980797737
-0.28554700084067836
-0.41320519397098693
-0.6299293339937351
-0.8226764724771185
-0.9778575341787922
-0.8363440088225902
-0.2909073557641605
0.32033435520348325
0.7504539759662925
0.9977104969558399
1.2235991176326921
0.7965303140186806
0.3819410200002912
0.00967271675331402
-0.14526400027438796
-0.25357787544323007
-0.43574313742545845
-0.7358543582969438
-1.127331420320542
-1.4296409462320367
-1.7395201886014084
-1.0409069395667063
-0.0037544036635401845
1.188169449650224
1.59644392028958
1.4441958446965555
1.1271785194628436
0.7294149249726083
0.3529739217707229
0.014850296644224534
-0.15310972039125614
-0.26644468159404255
-0.45505390548776986
-0.772044475225442
-1.1523991184589266
-1.5116026622392962
-1.4914761364683728
-0.8883423548496288
0.22345885137578703
1.2309930102806328
1.4621123395526
1.3407854679963402
1.0242127623714217
0.6084201608386837
0.15239893818738612
-0.17766076627359217
-0.36685467239724284
-0.5442199112495997
-0.7789904972704113
-1.0971788294794012
-1.5922435871789307
-2.0396308856826346
-2.1313386184402052
-1.6307973088049037
-0.511391527755283
0.7764516034824751
1.4097108732914299
1.14209239513115
0.6528646782603902
0.11516970984772021
-0.20721418753277882
-0.5611103052614035
-0.6876578289363129
-0.7564650399395194
-1.0738649327189518
-1.3949071126928314
-1.8276235442790443
-2.2598693475065454
-2.3567290379471983
-1.4353531648725784
0.10397413343066786
1.3626832758416914
1.8004247458075575
1.55905029411514
1.2586419417762742
0.8427875180093237
0.38105575094470395
0.06097203775528562
-0.0900105279469777
-0.27780784582569307
-0.5557292388896505
-0.9657239624154049
-1.4669592466070076
-1.9084696754234058
-2.1967708126261627
-1.656167867158374
-0.2501519249643587
1.22187848195775
1.7893687504834683
1.6492898896414177
1.3232021616705405
0.9008677101717762
0.5055708387158478
0.12009996154967763
-0.0952964701362086
-0.28153438804541286
-0.5322302283717822
-0.8737207721361214
-1.3279107667902876
-1.8459416719637403
-2.144319854193003
-1.5741949150302592
-0.27209053924723825
1.0857697893163882
1.7186177761840045
1.6382847020540061
1.3044697468356488
0.8317979149273642
0.3425290977135793
-0.12255703997312241
-0.41339152953632924
-0.6297513240624264
-0.8809161503181728
-1.266485416103759
-1.7924896884283152
-2.258757722857002
-2.3917774790257322
-1.9899533341972357
-0.8122975168053779
0.9559824843684688
1.8305977540311142
1.6957013766426514
1.224376923586603
0.6404491476691127
0.11098188186246147
-0.31301827395240445
-0.5019781092797319
-0.6547133199522909
-0.9167523226063352
-1.2748072573802334
-1.7222636931963053
-2.079802824441354
-2.1638797417340454
-1.866840887114342
-0.5583113702442619
1.0674300741267988
2.4391605863728234
2.257620261122794
1.6746252309943288
1.057264791746284
0.5341028060003601
0.04840499525820764
-0.17274325828382123
-0.3933600779117794
-0.6523163781118735
-1.0208903241505978
-1.5019194214091727
-1.9441785805641438
-1.926808105490833
-1.2110239685929123
0.41805881782296805
1.97751289676597
2.4738768160231888
2.303635378406804
1.7971673153861387
1.1970249787285245
0.5969267358540867
0.15292832585426602
-0.12789681539734507
-0.37864755345927015
-0.7245888881979825
-1.2031680680676948
-1.8699931363943425
-2.231122495580371
-1.974722825686415
-0.9925275312557122
0.5262847676407287
2.1517805382498016
2.495830504236439
1.9933981682413169
1.5200848228687014
0.8387884173088969
0.2546016623362959
-0.2763986387704237
-0.4538974788489797
-0.6568622676860039
-1.1430117333599537
-1.4847979718719064
-2.10054170566184
-2.19890840793077
-1.852363037458717
-0.15993112874315873
1.973947818553608
2.4893953692157265
2.2611518332967457
1.715220658760808
0.9443032811414025
0.2264714638560208
-0.22697420917683644
-0.5112104781146865
-0.6777548967991615
-1.0254622150348474
-1.4397096950292299
-1.9825669417912741
-2.339006718673249
-2.0921668050134024
-0.7553050477962268
1.2649977322764112
2.6230193592034987
2.8488753186566327
2.392038684673618
1.6555010222584352
0.9488557790205564
0.32438471897068366
-0.03271206136361542
-0.2823936475676537
-0.4724579904103671
-0.9443430632019852
-1.4233205788861143
-1.9253361458506775
-1.9244420889226455
-0.813257918117198
0.8792511086549389
2.3647370944860513
2.8404079419679564
2.5532929973823237
2.015922131865036
1.3848219604763043
0.7296603527366012
0.26438649810411724
-0.021626581898220934
-0.35949751464210167
-0.7961187396781271
-1.3117890393899736
-1.9482241411206775
-2.214211041033492
-1.4315263336834492
0.24722020399982048
1.7561809088298594
2.39510827605906
2.1924204044830695
1.614488777869234
0.8826174447807686
0.20648180933674942
-0.24721516683426906
-0.525916039402099
-0.7725438025570875
-1.154497359397009
-1.7193164986739307
-2.221835184719732
-2.3579702
-1.5020938347626132
0.23886973196616434
1.8494511471439865
2.3355118400352266
2.038670263542247
1.3272666204260073
0.6159451925738478
0.02035287138472569
-0.29810452223144757
-0.5428238752187263
-0.7612094487383383
-1.1115709043468232
-1.651523682928531
-2.09376651254461
-2.197309689527672
-1.252930566822879
0.7561134226827382
2.4063850823343893
2.766263088026482
2.4261120331286463
1.9143623802032605
1.2444523854629128
0.6656313684686853
0.2923595432220186
0.09266243360838941
-0.06687603333969962
-0.310828726116832
-0.7393355449903325
-1.2055181760539202
-1.2224566734747107
-0.3098370969620059
1.1690317663471956
2.289528437485342
2.435831880594464
2.0758669139807617
1.579438816689457
1.0596207744864021
0.556047829270809
0.23822347664315818
0.01665890926928032
-0.2353049547844634
-0.57866440975577
-1.101669550424682
-1.5753946745228706
-1.4309672604061177
-0.5524989291007144
1.0775633643367952
1.9158782481270258
1.8964573047536195
1.4256394550663647
0.8787440360449925
0.3089311557042765
-0.061229273513116966
-0.24590818927911612
-0.43979108575579834
-0.7276548473085265
-1.086534163581946
-1.5484494645195404
-1.784040816215112
-1.3043280080451978
0.2725434676494545
1.4222991760128811
1.7953905602104299
1.547765066205332
1.0902755826411639
0.5726813902661694
0.12527742002718625
-0.12668077784357376
-0.2726219026152211
-0.46919061675617246
-0.7122932360073185
-1.02168269756988
-1.2900655121462972
-0.9799806298195135
0.021932355897377964
1.2976592305015893
1.9411045236439628
2.0117040501810193
1.62018932974466
1.1841266731452778
0.7242331444153468
0.3485977011078949
0.11948691014137543
-0.02515755887846738
-0.19050376111978945
-0.46112718252443885
-0.7718108351027718
-0.7525545422571622
-0.10089652371071023
0.9284064503752977
1.7486348985559412
1.9040605623650813
1.6909892656608538
1.295694572253892
0.8475803185897632
0.406525359141443
0.08916389176997824
-0.1011585670126646
-0.3158922893491365
-0.598505947142252
-0.9277831534945008
-1.0812871294286701
-0.7027815464512224
0.22662096826524403
1.135291657829896
1.473904057534664
1.3004099861854286
0.9278408447169854
0.45636680686274456
0.0654124914115724
-0.2110556478080189
-0.4159275180914972
-0.605788966110163
-0.8375013268261415
-1.1483138979143142
-1.4616565110414124
-1.3584301131081047
-0.5313529997528462
0.5305375648842601
1.1849065318530019
1.2259563685351966
0.9172000775026674
0.5556376301655657
0.19663641630756495
-0.11803753232281786
-0.36268600068903156
-0.5276911020264349
-0.7314215267118128
-0.9943728745049888
-1.2521619107615483
-1.515924402237979
-1.1725965238024658
-0.05969018352467257
0.8190498355444695
1.4671336804153137
1.36802232144612
1.0738813493874444
0.6587382153402372
0.3417760003276099
0.027407062710845795
-0.10358708322158636
-0.2770785202626773
-0.5022395366254568
-0.7002654557382366
-0.9876532356827533
-1.1279910832690447
-0.8715317138246328
-0.0937029426788612
0.8671570797336309
1.5326486
1.4469014777690732
1.2106350054582904
0.7762793041156664
0.4380015335751602
0.04487063601561536
-0.1280561077092651
-0.3005147061153557
-0.5099419820530438
-0.7904158668651249
-1.1454135305982285
-1.4009270931139715
-1.173881890695689
-0.4296674028389073
0.6061190158295433
1.1754435232582303
1.1425504432048508
0.8287039657975865
0.4918203018261064
0.02965270009486773
-0.33271664527070877
-0.4729685047149258
-0.6640058276535279
-0.8997259112744107
-1.1944941402272466
-1.4573107399964638
-1.6487575904381901
-1.3005778899637934
-0.3555315101402571
0.7094043957188838
1.3004947206119246
1.2338888357614666
0.9524859386085944
0.5767919259606493
0.2031649301714125
-0.05775984751716452
-0.23482371313505201
-0.4109271536096223
-0.5911065442397515
-0.8079335402082677
-1.0554206658164205
-1.2242772610412975
-0.9039595798592281
0.004459724244930907
1.0340043642929913
1.573480908345756
1.5602942031621452
1.3579511513901044
1.0547701732248265
0.6839790326809344
0.3374336702252977
0.09179150295152161
-0.11332438075494411
-0.309054653391673
-0.5173227725616739
-0.8060940673322341
-0.9766211310788311
-0.6931557777814644
-0.010642270792292213
0.9736864356618116
1.4579139265601206
1.367168534869383
1.055340514593415
0.6984320095440814
0.37334963369711727
0.007257109620523838
-0.21025153243069994
-0.4405673741114472
-0.6388141147839088
-0.9442808627192989
-1.2532139167857348
-1.6261287709253067
-1.343408217980893
-0.5068068799348971
0.5144332052741127
1.1966012575166065
1.095447512702241
0.7395735307757748
0.2899957839703565
-0.06966210337335355
-0.43220556913625585
-0.6034397521930533
-0.7191710028028279
-0.9210643404893046
-1.1504800056213844
-1.3903960683319379
-1.7928094129235743
-1.7635983801799626
-1.1617038146752927
0.21569854289078527
1.2023334796029226
1.411647816155441
1.1820439455974825
0.7258064418627743
0.3451944397654476
0.002037672140330557
-0.1854815325412203
-0.3488529146067912
-0.5178114600467103
-0.7519125134347264
-1.1021560429391009
-1.3496884618712581
-1.4759554256814789
-0.8421219156950825
-0.03916786555967833
1.0779647566990964
1.6237289992719721
1.4772875272689174
1.0461499703618007
0.7250833608239612
0.30742859183223714
0.03843313747738798
-0.14102513876674463
-0.34705675527387925
-0.5907038106085882
-0.8864783596632857
-1.252839419171411
-1.4666668091351658
-1.1355460875333392
-0.10967973355753391
0.9660962376538709
1.5051785121297785
1.388521307558372
1.0677630070716813
0.6536291937378347
0.16834898727544514
-0.1646210245656916
-0.41995612603142535
-0.6149014559809972
-0.8410552525404491
-1.1797628623454584
-1.6345827996803424
-1.9496560414403508
-1.613590469730615
-0.49744122834639504
0.6563092844681063
1.3075562993101406
1.249460407831896
0.8086447427812063
0.28720224517898146
-0.15520577086321244
-0.5332104584734869
-0.7608348269389963
-0.9268199035105136
-1.1528348609407133
-1.4911126715636378
-1.8963856334253846
-2.0442982350477337
-1.5536543199335395
-0.301378711502074
1.1012883802818725
1.6126196827426962
1.5329249606965922
0.9791510894593441
0.5830992432173008
0.07246655040146216
-0.2534486594096787
-0.4110603540489647
-0.5985256660870895
-0.7675165204052442
-1.1078904650408705
-1.4516533967891931
-1.321558459884568
-0.2708917975735019
0.9044916110287547
1.7059119889795402
2.0179223863857705
1.7973586482451456
1.3930730202988364
0.9281309789055929
0.46448279553867083
0.1632115483352201
-0.04377144553654799
-0.15827055232100928
-0.4261695463043512
-0.7308223369114097
-0.8335698167160613
-0.45934494637402484
0.8623696287799574
1.632939542751247
1.984718910537512
1.770207349463109
1.3039311274097682
0.8813317164019111
0.309429495216483
0.08121669449477051
-0.2013741725951695
-0.3450468090989733
-0.7039781271454463
-0.9762637639213978
-1.2585580404341445
-0.9120295925633748
0.29266801507410595
1.1824071263889533
1.5681968417099008
1.3650206997741665
0.9896532176231421
0.5514139568620624
0.11448879797280123
-0.18770607311293133
-0.39983562766829595
-0.5752810030789839
-0.7820417821463157
-1.082691162034548
-1.3043932879370286
-0.9026873778505238
0.14152301168016582
1.114766022715247
1.5026437945024564
1.3405355956205198
0.978959768689078
0.5721964141878415
0.18759058197885634
-0.08561776547746197
-0.25920977391210487
-0.4592639984515634
-0.6779681325278042
-0.9106322443323495
-0.963514254659336
-0.5644951757294607
0.2993078087205455
1.146804962011644
1.6240370012414655
1.4424967561562614
1.116402578537962
0.7448350302654002
0.3924090699212375
0.08524386775594905
-0.11181776968804735
-0.25509486437775086
-0.43451207872679437
-0.6779390589367473
-0.8027424586896418
-0.42483404240038164
0.23325752581535297
1.0507625293477587
1.3724882637987104
1.2021058206448556
0.9316482620031503
0.5206039330772875
0.009721391421777581
-0.13744218792229598
-0.3550187851173007
-0.4846949156556047
-0.7028859621031438
-0.9662136724753445
-1.1651120887997393
-0.8455127684360597
-0.16481980901473225
0.5754762133031539
0.8728891830581281
0.7199506543265217
0.38363102373653807
-0.0032635583290866466
-0.3196172512078807
-0.5797862123671056
-0.7213748194684932
-0.8546010115253158
-1.0684343562877576
-1.3286826072924964
-1.5550471914261472
-1.3641073413332063
-0.5931946767872578
0.3083565876360408
0.8402200541720493
0.7427221857648989
0.42498436525429717
0.13238251060263106
-0.1863832872323454
-0.3927564292207685
-0.5167871208966638
-0.6269102288420504
-0.7696148668970275
-0.9693662033548741
-1.192145364360829
-1.0141810725141587
-0.35862701082776216
0.4513608914767749
1.077950450204196
1.2144190702013178
0.9833722932307554
0.6990746429529328
0.32497978019663093
0.11046820549418745
-0.037665086225193295
-0.23104173403051287
-0.35910121915431387
-0.5804921003110524
-0.8544300839114118
-0.8461625000128021
-0.27407647640301136
0.6859818803059643
1.1275051140121481
1.3139154107390516
1.186040152200246
0.9020320795564831
0.557163176187782
0.22763613846995515
-0.038279384082735284
-0.2363053051194541
-0.4656393078101793
-0.7044587389034691
-0.9272378999094674
-1.22786492877515
-1.142552293687325
-0.4346552278279576
0.4159551523716464
0.9813596454242111
0.9953235524306733
0.717195679154961
0.3600767280962691
0.020474106357229127
-0.28998240022981947
-0.514068046038523
-0.6724227251085908
-0.8774464001286264
-1.1247956284801979
-1.429007060976667
-1.662476377849043
-1.4281368294940158
-0.6357720447187709
0.40197294136702383
0.9925941349725692
0.9986363095478975
0.7286173521039488
0.36270944738111255
0.05734426319405343
-0.20116882570365552
-0.4050056585890078
-0.5576067367349438
-0.7061386307978599
-0.9125403178680369
-1.1737689699564753
-1.415119980160352
-1.2424943015122585
-0.5145148482725939
0.5628684056007638
1.2385987021151585
1.3514154747552396
1.1633275155250367
0.8897674029990822
0.5262011735863455
0.18573045708435407
-0.01636355964421314
-0.1794494201683817
-0.3952636336433308
-0.6923699386103075
-0.9030543302030005
-0.8505335411184495
-0.480885157652271
-0.11123677418613243
0.4828608860929434
1.4123056933947027
1.4453265512524616
1.2458588579231742
0.885129894913167
0.23308369363112014
-0.16630348089884747
-0.43716334382795036
-0.7080232067570826
-0.9788830696862147
-1.0730717079340428
-1.0640615099529283
-1.0550513119718148
-0.7896383752720693
-0.1753124754764287
0.4390134243190791
0.972632362857745
1.0245318183411845
0.8386524123396903
0.5003746337826934
0.046473759782722696
-0.45132603855452963
-0.6136106975025033
-0.9129152091918716
-1.2405828694908037
-1.5298010568655407
-1.8199557901814318
-2.125247454320484
-2.081613661946162
-1.3774162982755231
0.030953219075212868
0.8934969659668957
1.117750100256945
0.8122998434570546
0.3573449501587176
-0.0542105785267617
-0.3846333505852636
-0.6248037823674284
-0.8062256794946341
-0.9421569579186504
-1.2232569985706845
-1.400760416567907
-1.7276149922321458
-1.4329294362767346
-0.562536419477007
0.8003058308250262
1.4687770014595987
1.3975318754228787
1.103394888230816
0.6939192520128102
0.25951108088356656
-0.06444856578767438
-0.3384156751787205
-0.4672249914081924
-0.6570328284084692
-0.960345387849753
-1.2689329135493503
-1.1855200861513484
-0.5648435282412994
0.27389397654270103
1.2068297426354613
1.5108479899813332
1.2428810763911249
0.8624387687332273
0.4728713701722056
0.09450161567823794
-0.13206883866971375
-0.3427893886621326
-0.5569725000041553
-0.7989195547594287
-1.1503884866212524
-1.3202335625208255
-0.8514767382398363
0.02625362028473316
0.9986563360397064
1.4036149991910776
1.1829693874598448
0.7760178963170561
0.3071394402368834
-0.12628658993262337
-0.45014104795391696
-0.6719690392198857
-0.8596855607714713
-1.1008972083527417
-1.4366013877780994
-1.561335840403179
-1.1582596217924293
-0.08837233866346428
0.7872630107443386
1.3007261453512757
1.0989854782352386
0.5780408421348084
0.09201756641406461
-0.26454441437841153
-0.5164674219023776
-0.659780171380081
-0.8393886016258947
-1.0876100371886226
-1.3449070479323912
-1.4816769206823786
-0.9292569649301795
0.14384080354480322
1.2044521578925715
1.7504250677387974
1.6515393948909136
1.2606898119733012
0.7510438981512619
0.2976229457671576
0.02770915480731473
-0.10296056065881815
-0.2833181506158515
-0.5573451811001087
-0.7968138249933856
-0.9500161928744353
-0.4354945846575292
0.41656827815886727
1.4397858891121404
1.9607570621713148
1.8362240632306965
1.455855911855612
1.004356823974249
0.5518624983203533
0.23665474059854913
-0.02578748036756598
-0.20855079950285155
-0.47058981036879627
-0.8648367184750024
-1.0340003466217842
-0.5422968580938222
0.27045101919418657
1.1710902992980738
1.50909924418829
1.3196617959463015
0.9978696513344276
0.4263135044501085
0.063282490412915
-0.3137686761889673
-0.4921744848864498
-0.67079935589154
-0.9374442709308126
-1.2537266768281439
-1.4723653298363348
-1.0454153370158712
-0.027685892453371164
0.9330170206711175
1.3296894043272498
1.0652797604756539
0.6072564862424105
0.12081432369309934
-0.23609937660001368
-0.46917159420735943
-0.6067825513797979
-0.750297189336507
-0.965244403543844
-1.2624653661528582
-1.3258951941575616
-0.7687205339834757
0.3593623974791435
1.3365323972889158
1.7056591302732649
1.4957733762441343
1.1025286176474511
0.6681862051874606
0.27103647944099146
0.03274022955603009
-0.12656952400906063
-0.3180246110110357
-0.536492400497221
-0.7747342052750633
-0.7710507612261468
-0.16994761355396
0.7522660244676345
1.6557213505755828
1.9391912972704402
1.6975392609876832
1.3248627227579726
0.9010236716565324
0.426566483535155
0.1930425045539817
-2.415826983148857e-05
-0.1353253701370386
-0.40024031676896177
-0.6518848677398906
-0.6498047795868078
-0.05866913200076723
0.9560197058699131
1.6637371293229257
1.7059819135213428
1.3221277774146714
0.8676452915181
0.43938747449668636
0.07282893154542869
-0.21359431524882394
-0.4094235332084074
-0.630127918407115
-0.9142467463225241
-1.1458946750713561
-0.8655218287786306
-0.035469399846816074
0.9253833668115137
1.3095699450151237
1.160715605969624
0.7592981940993762
0.289899412665522
-0.07273889712056236
-0.3332770566450264
-0.4614595269661661
-0.5890224460047127
-0.7616440637562869
-0.9489883563480876
-0.8689264965807209
-0.15229709264208202
0.7763622273163308
1.5019352918291395
1.624961390975689
1.4259602568747822
0.9413362025980622
0.5685081051855937
0.2714692217066249
0.01297837096295136
-0.11828087341545351
-0.27407950371542433
-0.5237576817880737
-0.6609160939393208
-0.2864760763172128
0.49219197517804425
1.3268643886268012
1.5842055982565844
1.4234399966376985
1.0528499555433883
0.7086402745151269
0.38466065916421016
0.04504843012892085
-0.05807356807877648
-0.25460568373182735
-0.43210452381042175
-0.6462023135220003
-0.5636750119602281
0.11554055276988542
0.7900289104241408
1.2389907330584315
1.192167382666448
0.9696747402590176
0.5743268240452696
0.19465252207084283
-0.07456157217836262
-0.3296989669595655
-0.48055793633171767
-0.7132296005008674
-0.928859477255979
-1.1062518646598507
-0.8804987231030021
-0.023413488677636374
0.5919306391338137
0.8588397838350285
0.6498992599935587
0.3421820893877352
0.017988351997070662
-0.3229638281284243
-0.5594242551565825
-0.7166188389292
-0.8692672415213355
-1.072070123297923
-1.3060213947316237
-1.4086929674414546
-1.0814771980955171
-0.3084184347114698
0.48071419065503634
0.6917920260022878
0.5407607189307552
0.25385857215412
-0.08984957102666115
-0.32941847182837275
-0.5336394534527481
-0.6709099975376627
-0.8159281525606561
-0.9997441364675711
-1.2171254288075024
-1.3420185268400955
-1.0053332771211567
-0.2746524732711064
0.5327297399356721
0.9503185265062464
0.8962442435218715
0.6467471844392527
0.34665425098387925
0.09564436922101494
-0.15215069789001756
-0.32077679857494096
-0.48396000090466557
-0.6559419134341483
-0.8811763621460414
-1.0170608781979205
-0.8133360394717777
-0.1630494033989498
0.5217099932427083
1.0383842632608062
1.0307295991404513
0.8156450768606959
0.4795314825674259
0.19836545880647752
-0.03568299978055428
-0.26000920424273244
-0.3992360554744997
-0.5795964562055882
-0.8433221361885505
-1.1027657926427554
-1.068127377753747
-0.47780026733866376
0.23757308710392633
0.779363430954376
0.9119219840972237
0.721412167442353
0.4031495293189591
0.07550664052365963
-0.21793467168232095
-0.440866367087993
-0.627209979843451
-0.772445513141073
-0.9626359039064251
-1.2118777416044504
-1.270534456852337
-0.7637137439831084
0.05277781348217595
0.710179219183153
0.8212544767939068
0.5794782555245591
0.24657943694852474
-0.09827876573803072
-0.3640945604377958
-0.5294782918075336
-0.65842339040028
-0.804578104943049
-1.0033659049025039
-1.2207304251464093
-1.205684582910427
-0.6494140630376873
0.252767028198524
0.9450337425328905
1.0460486022072937
0.8271940385449273
0.49140626942790655
0.20708250839150955
-0.04269485336533062
-0.23883724959706865
-0.3435332781841189
-0.5432668704294885
-0.6861255039092055
-0.8541079695214568
-0.792580308263913
-0.1110456120573452
0.6034099545762134
1.2769870653965878
1.2648733917978097
1.0380050366521236
0.7418489557026844
0.41417738337878335
0.07610215289092956
-0.14404251252586053
-0.31454185170324644
-0.5015941265083084
-0.7316420878147099
-0.9156679943140833
-0.7007479509038022
-0.08998076249525566
0.6888578867186481
1.095148504173314
1.0738693875003515
0.7873224684340315
0.3381305769953923
0.012706954622226402
-0.24099904648417697
-0.43568197384081253
-0.622929638275767
-0.8485142188599791
-1.085284767893424
-1.2127332789460177
-0.859844699710179
-0.13709988186779454
0.5555367238701822
0.9411850697185258
0.7590552351768972
0.37739980310555993
0.01315175054801776
-0.27646960747336846
-0.4637533964386876
-0.6343602898228956
-0.7834190786260627
-0.9608796705802408
-1.2106331350137167
-1.2298827946736517
-0.7580490693402102
0.06278430402058566
0.8716412597299075
1.0758283087429847
0.9108165364721389
0.585710759840602
0.2312517194099788
-0.04659752223850966
-0.25684002407551404
-0.41773242911938807
-0.5965128555965924
-0.7852464858673132
-0.9643168918770484
-0.8997325010383506
-0.24014855435377847
0.5357629243558962
1.2450418455735266
1.2187001193576301
0.9533077874873073
0.6069113709191982
0.2987790618004085
-0.004807727601266298
-0.18084067616894028
-0.3619932632264967
-0.5134458690889381
-0.7251803536938233
-0.8240847392388942
-0.6440796421327857
-0.0880086165441267
0.7111744887075924
1.103078358620202
1.067217030395792
0.7803544976025498
0.447047776860134
0.08401676282294052
-0.1315926171163114
-0.3256438652806337
-0.506276208832702
-0.6715710729667044
-0.9512078247974904
-1.1972098392162442
-1.05167707539247
-0.3292149571841718
0.42754109308214056
1.0155502648706307
0.872148097698148
0.48539118332192666
0.07690202807304622
-0.15604533535705348
-0.47007446930798746
-0.5700448137344958
-0.7093559053690079
-0.8503224582598835
-1.0923445452931326
-1.2387040336387647
-0.9491374250995983
-0.18610155574174136
0.6182929603812418
1.0306453315908592
0.8554988977882333
0.4690174510709565
0.08334132462202933
-0.15868179086736905
-0.3814609518733047
-0.5501503333389106
-0.6485849702873534
-0.8863300814454117
-1.0738783135621208
-1.1015091716213585
-0.6363143748456395
0.2095406779234897
1.0182818673682115
1.2536239956897373
1.0377853500117116
0.6832637636575822
0.3320337634634768
0.029967373241759424
-0.19826251771901438
-0.3629726400203662
-0.5168350164071286
-0.7171980262440114
-0.8654663925198964
-0.6694175616952421
-0.011645337800446076
0.8307435773894372
1.2421266911238174
1.1858577385233047
0.8718135463730929
0.5079589004538526
0.16769800273192306
-0.09256477563687485
-0.2635102941735521
-0.42226466052010436
-0.6209789270876335
-0.8215903487290287
-0.8065580913978707
-0.32221067605507875
0.4061477483624693
1.126337434743059
1.2367712066390153
1.0059687480544595
0.6400048869925343
0.2501413587392911
-0.042743101964068664
-0.31627665130006233
-0.4910079335269588
-0.6781714621495971
-0.875622018618067
-1.0456939592920647
-0.6898721978998987
0.08773398905776919
0.8175515275143221
1.0913638856993957
0.9677294056157616
0.4568658495843398
0.11395648130018865
-0.24966442232612895
-0.47075161849416003
-0.7081036826801995
-0.8385910047156303
-1.0484311328543234
-1.2216877497015488
-1.1696497608177017
-0.6783755184000333
0.35080687961397244
0.9547859000404337
1.059652856538906
0.8467750067198796
0.35360484220619826
0.033950589148839624
-0.21670000859631589
-0.42640801848786386
-0.5561139969388441
-0.6575419067283058
-0.8548265720123287
-1.112029170542638
-0.8809824577038994
-0.007885679207056698
0.7553557223113014
1.369920630937006
1.3039284570900447
0.9229263363742405
0.5638258040045389
0.22766249703827932
-0.01971730898136179
-0.18661049511587058
-0.3924889901089895
-0.5511617829213913
-0.7555796242699875
-0.867992458867595
-0.5494045910688266
0.20107409178910213
1.0749771035215816
1.421845274509051
1.2868430175991787
0.9445179781942679
0.5212355749034261
0.1937772549370907
-0.12433271194445068
-0.33632353001034043
-0.5504112445356908
-0.7757136230318427
-1.0219268699833335
-1.1836338905598276
-0.8894324207576045
-0.1515444571628468
0.8411035608088481
1.2682648150684965
1.0844923288731965
0.6783926942215623
0.2649808387073266
-0.0683878093794773
-0.35000030294344797
-0.5227400812528287
-0.6998449579643219
-0.9076043213943452
-1.0994520553340923
-1.3194852687585616
-0.9417199134476736
-0.3117530957932749
0.7512120317730282
1.2238694
1.096477583957812
0.6697324986584746
0.23509863366097133
-0.08758454193243179
-0.32615120870868725
-0.48149643283926286
-0.6244477387525401
-0.8307420837357453
-1.0412660197545536
-1.2343487473692791
-0.9568777987436503
-0.2124542444433356
0.8045124590293925
1.4656135772076277
1.493946612216133
1.1944373685357488
0.7948036077563818
0.4074782621672733
0.11978006506971547
-0.09276488364326597
-0.24351479320834396
-0.42743411193816533
-0.6689791557739744
-0.8952053462331866
-0.8146715859307869
-0.17992425294197434
0.6740816973755513
1.4612028894026263
1.6404382335768113
1.3927488706793145
0.9597379270260569
0.566700290294956
0.14440142330692884
-0.08473727962250334
-0.25950836555902235
-0.45273028230967177
-0.6945396904065406
-0.941083174108952
-1.1542913668114982
-0.7450212610361131
0.07602015125343098
0.9021317646618382
1.404934177708582
1.2369986436025175
0.7905451741654899
0.4151375367768016
-0.05299247709487279
-0.2544884528652898
-0.47015916048067896
-0.7228924970095969
-0.8631938662564398
-1.0996635249887967
-1.3224427260771503
-1.1835886031801148
-0.30363530463004507
0.5264778408053308
1.3790028257901585
1.3294963901026284
0.8434540097783441
0.43091651355805954
-0.01848962984290289
-0.2660220327421034
-0.5076038122419416
-0.6543021231155002
-0.8031933887880283
-1.000432802771795
-1.2217398971486728
-1.2860663278011215
-0.6916763775229484
0.24348712429551567
1.2775559987374139
1.5676073915143995
1.3551089607393498
0.9753826954956819
0.5273756204766191
0.14091725531243127
-0.12336233923120106
-0.3060198774759163
-0.4776987981433939
-0.6674571333575026
-0.8984257251566046
-1.0169044423156972
-0.7508616445313812
0.032747712234980464
1.1062100014164793
1.6268341308679313
1.6337777608106692
1.3442404691676966
0.9243537592544396
0.49488529625655536
0.09764288774254576
-0.1137995151492456
-0.2870721963655847
-0.47591644571374614
-0.7008843695621795
-0.9649024304559306
-0.9037794724680723
-0.27930391934091503
0.6220924073124467
1.4023579462442617
1.641622725162425
1.3465483959103748
0.9035174459258924
0.43111885733840816
0.002861373811746476
-0.3430054952772578
-0.6135137302178222
-0.8658436227722173
-1.1678381256780557
-1.3750883727014065
-1.6634766731412232
-1.2438807673723495
-0.39021274591828614
1.0211362540947837
1.4790662543186877
1.3243933404392674
0.9131971078892747
0.34367933407204543
-0.11006252380945963
-0.38736851414132945
-0.6155910455329923
-0.7924053116678906
-0.986466239995828
-1.254588359452987
-1.5514248596672793
-1.6548345502290673
-1.0774673672260977
0.22871518481064945
1.2632745417545643
1.7131791113832209
1.4412455417953085
0.9755702980822145
0.453408455334585
0.04926175231381863
-0.18627848562073818
-0.3143903671319141
-0.4299593683238894
-0.5955786621645056
-0.7844426089586908
-1.068746212179122
-0.9185765128949257
0.028310625607295754
1.274805212748805
2.106514061799145
2.12401828832645
1.7910613706757685
1.3262828879540036
0.799857022286957
0.3975432162303838
0.07393297803019012
-0.06973965601005516
-0.32154677491011086
-0.5360583520174763
-0.8633783308315108
-1.0036301662262923
-0.5030309851807209
0.425506235263018
1.566070616911917
1.8692652615609795
1.5861655976595932
1.0878947253847149
0.6226132643723284
0.18320381867296692
-0.08707577468964955
-0.26320665810851973
-0.41027712771387126
-0.6156107503637103
-0.9002596891022546
-1.0593597666713563
-0.8513494711791124
-0.031091092938625685
0.9455524681263512
1.415645247189795
1.4071637238853636
1.0002711241494895
0.43976779181924197
0.01716840380476492
-0.3123608891276199
-0.5352264799661385
-0.7842013182243994
-0.9838788943697577
-1.2108169888190623
-1.3344115106793986
-1.1187944055849843
-0.2689166694655776
0.8918695570599671
1.7075668984084293
1.4765201374708294
1.0020332028453192
0.5527610808746576
0.14872327017065212
-0.1101867723869265
-0.27085472218676
-0.4620335823683781
-0.6459995673531388
-0.9295249552525255
-1.1566377388791669
-1.0043979112350885
-0.1947447823964943
0.8474103894050323
1.6128189010544094
1.7122301082840083
1.3794321907390166
0.8921620198841751
0.4236865953974029
0.06646546620584798
-0.16523024790073407
-0.3435190645757863
-0.5597367686904267
-0.8102177011780626
-1.088321338369394
-0.9550553352035807
-0.313365469913755
0.5404690004632324
1.435945809121074
1.6076961668621297
1.3004600917695373
0.881028530027604
0.33489813490093284
-0.05910484476313843
-0.2829798060050724
-0.4821234814339672
-0.6558476919717336
-0.9027527918668464
-1.1656108342784663
-1.0426824394428469
-0.41248493552597376
0.7500220526524273
1.5155564812054312
1.5635266
1.2637571207090599
0.7970296723999071
0.35227458573961595
-0.06047717932115099
-0.2562008878325039
-0.439185958604848
-0.6286353067788703
-0.7940638050066711
-1.0413286176838494
-0.9068202298520969
-0.265010597919355
0.7619615326212404
1.5138900991127806
1.5839668546187347
1.2948972899568865
0.7326362809719524
0.41691035431872114
-0.05126763856579918
-0.1833014199057897
-0.4349365342449045
-0.5955476271095077
-0.9010328983935291
-1.0704704455089313
-1.0239907781530295
-0.34784573437170135
0.6057522118305795
1.3259414292586453
1.351004431842917
0.9691324095715028
0.46359433187690513
0.008788877164335462
-0.3046643633613717
-0.5365842747539773
-0.6872361686751227
-0.8617123795370967
-1.1433040825403238
-1.3495518464758984
-1.2816295044353327
-0.6785788368418448
0.45342742869061614
1.0417878525542892
1.0725154992419152
0.7208467935375171
0.0944448169337723
-0.2644528125702815
-0.5897463769083301
-0.6923519864257617
-0.7334457010038968
-0.8331643856361979
-0.9980896967128019
-1.1447543813178263
-0.9822354774258389
-0.235444519776016
0.744363589937308
1.441125127732357
1.495085553476752
1.1461391106521024
0.6576766493809163
0.2622832831603376
-0.01856326310474582
-0.2361750254669988
-0.3764268849112007
-0.5772544801470912
-0.8139629403662506
-0.9961052841511402
-0.9719637398357723
-0.3036262488012218
0.7034014353148128
1.6262691087425427
1.734239560620261
1.374109594719732
0.8606534398189091
0.5394819632365364
0.21070551425512657
-0.05674244305371472
-0.15620487007658174
-0.32898290996570556
-0.5617593446378863
-0.7721633824632321
-0.6711481685833739
-0.14027633373618872
0.8684848079485425
1.5718761338901777
1.6680169674771523
1.3572932777064164
0.8875975057751786
0.4676411221662761
0.08910005764599653
-0.16150758221370315
-0.3558941695062122
-0.5869432201927154
-0.8156614727095186
-1.0220641842745943
-1.1337521162245603
-0.5974484185547255
0.32958040070829075
1.0626368387122345
1.3405964834293014
1.098305995382526
0.6249926500098547
0.177132922091554
-0.14553141177779916
-0.33389528302697535
-0.4379700994997355
-0.5617362929328469
-0.7935700587719345
-0.9894473128089769
-0.9468898839397575
-0.4204917914105518
0.4085463307999855
1.1699724003785568
1.6156545586199966
1.5059578344708981
1.119116457130768
0.6621560253082661
0.2832972277390997
-0.02626616495660031
-0.22186988920319542
-0.4506399422257986
-0.6709685952931518
-0.8926749481106833
-1.05412462016177
-0.6602541838614663
0.47251515881762884
1.3366455778610957
1.850031298612402
1.6278561121198907
0.9216055741921987
0.6378628979233532
0.3541202216544461
0.05162632675966655
-0.1852188281813442
-0.349958539624312
-0.5026446997111602
-0.7106216299607987
-0.9803232299461302
-1.0037090769369101
-0.5103532529865877
0.6761911687334033
1.2826455269770776
1.5274975654577903
1.3130562995618802
0.819966918098729
0.3391352297012271
-0.03956407587216018
-0.25823568330335045
-0.40981250929166
-0.5594919394832153
-0.756181298691383
-0.9845343437111372
-1.161529873192082
-0.8668306257806411
-0.07515679846401502
0.8930871990106342
1.3402717650695681
1.2106220221117354
0.8239847251419246
0.3639148568621707
0.010045239272204437
-0.2091967838079515
-0.36106102239023996
-0.5415409328267468
-0.7889015352058644
-1.0535235659893447
-1.141321383877123
-1.1095144988627703
-0.5319223915025934
0.5030400062739183
1.3856634860027393
1.3466342475753976
1.0105747142949275
0.6028671310118898
0.1488794961091709
-0.134700206434427
-0.3494822782425321
-0.49599399636356617
-0.6392521208329357
-0.8058820091371357
-1.06395243427054
-1.219473263584689
-0.8620025133052549
0.0387542208019358
0.9125375163059297
1.2977270541174484
1.1439922742682693
0.7471342385670228
0.3390125279343009
0.02604834525500188
-0.3267844541890934
-0.48999893104290637
-0.648980236368023
-0.8408659864561797
-1.0962778201511827
-1.3511256527027742
-1.3642795853719791
-0.7647526640332456
0.25680596297835967
0.8120582667495078
0.950169708335594
0.6801417450109788
0.19495393756762486
-0.08245894606102555
-0.4514309787672108
-0.6033267225850575
-0.718961100741278
-0.9137324549318202
-1.1092748590498334
-1.31552854457829
-1.462451391352439
-1.2472267589921087
-0.5211152243220819
0.573697347086867
1.027523269030568
0.99411737262104
0.6888108779872932
0.19239511591626451
-0.052661960388701246
-0.35665886881958775
-0.5453681543993502
-0.6835014907182408
-0.8564450228731666
-1.0587257017445244
-1.297127911962064
-1.50030984402875
-1.202788933420308
-0.3404458048220447
0.6436831738889216
1.1066225897471953
1.017337781171221
0.6518810543314439
0.3054443647042797
0.003253757965937659
-0.31964111796398553
-0.5044698906984771
-0.6052323570073881
-0.7786577978689542
-0.9821379232998374
-1.2416686635680545
-1.4574352017826404
-1.3488062403868062
-0.5272401554888833
0.4012533868630239
0.9718046187914166
1.086223533058436
0.8216669822264698
0.3737106163544447
0.05509886466229069
-0.31986954282611796
-0.49698545982136066
-0.6781786596425684
-0.8886799312006484
-1.1176831712469184
-1.395743631012581
-1.7482532891654567
-1.646297982225518
-0.919028142218666
0.11422312390911576
0.8304085727980177
1.0098054359425475
0.7173524353458601
0.290231249281688
-0.06682725838005721
-0.39129329466901086
-0.6273737871398406
-0.795398614611365
-0.9477335771838096
-1.1856830009809167
-1.4242419806122495
-1.7725874709582259
-1.789955540185307
-1.1955274069919148
-0.10322636808562158
0.7994713810859421
1.1258034888637622
0.904052092889883
0.4992370831366458
0.10562502397250617
-0.17263484578473254
-0.3646176426996609
-0.5176052265100334
-0.6420783401960644
-0.8542880972432951
-1.1329019600952472
-1.406903815568009
-1.5214713569033134
-1.0867577869782983
-0.03496924355125697
1.0307622453455332
1.5061405123860299
1.316516271052484
0.9250066227760273
0.5325833666514199
0.1880637441184531
-0.051313664473917886
-0.19616115603090614
-0.3730153447478348
-0.5380253824633134
-0.7330258530043928
-1.0245894465391814
-1.2286793919324714
-0.9647248734576399
-0.03378970509512824
1.1659845355650695
1.615892035308987
1.412838825201432
1.0487393590435476
0.5991357116329519
0.23160201704694122
0.0007638586973727816
-0.14642120789475208
-0.2927339785266637
-0.46410473164326643
-0.7242867146424938
-1.0158264863677249
-1.2046988734978377
-0.8483705512389047
0.15323724469030775
1.0790084401910802
1.4422796608994093
1.279490106232799
0.9244923932276565
0.43740241462803786
0.13518262039065487
-0.1246968027990318
-0.2616869910933685
-0.4531303369958744
-0.6142981025652829
-0.84213158754059
-1.067805136671103
-1.2115705037918718
-0.8194274395266645
0.017290894970727767
1.097203887675329
1.4673615773354398
1.1955877081131705
0.8702451066250735
0.45523630261031733
0.17703856327236778
-0.06591292670288573
-0.23161390423434333
-0.3933381508333903
-0.5564742604806023
-0.8054835684101511
-1.0233415992680832
-1.0823266874632054
-0.6248872608781588
0.2558149563877816
1.196031465068891
1.6975674216172034
1.5905940493121669
1.251936221814188
0.8557919625749563
0.4939868091030487
0.19285318903575216
0.022549581543656452
-0.10904567810421723
-0.3177856145241164
-0.5409351648547749
-0.7343734643026203
