-0.11377917
-0.2572503545039966
-0.3287833184105785
-0.40505790249391643
-0.4729344513775756
-0.5025498991110566
-0.5130861039543663
-0.477107707304128
-0.4454746205955907
-0.4270560513643896
-0.41921325
-0.4224001275600325
-0.4270902854082264
-0.2104578237954195
0.18122769038538167
0.48008833280926644
0.7142425515555222
0.9205868181972336
0.9870600047183606
0.8990340231550947
0.6878369065709868
0.5160188165061574
0.46795186642068826
0.5228937673864851
0.539218939756765
0.3428564197664706
0.09469014228971498
-0.15263153515627917
-0.3674202962187638
-0.5411589904270027
-0.681614442545701
-0.758887718427306
-0.76590348
-0.76590348
-0.7730014420879211
-0.8246600515824559
-0.949495706725542
-1.074331383335127
-0.7422779826233155
0.02095253033797695
0.9523143345297496
1.6429436503784418
1.8402831148720113
1.7038523466119369
1.462075535947045
1.06072871512992
0.5181354854962835
-0.06443089976546335
-0.4426691807077058
-0.7018200559736845
-0.9120521653169735
-1.0821839152997546
-1.18871705428304
-1.2442273499329488
-1.2916584162537814
-1.3667259153393707
-1.4409186381579275
-1.519300676348136
-1.6271845634015332
-1.786699503098531
-1.9257654595446438
-1.9545557
-1.8830012822241353
-1.500019747385117
-0.6616006751217481
0.3786964423172744
1.0273882415089082
1.1385053500352336
1.0079427386529165
0.7590027390360734
0.567514753349224
0.3159645008019225
0.2696437372974411
0.29389797319436367
0.2835256751576108
0.11578459434803566
-0.06130487530582296
-0.28459789730236223
-0.44708240142317535
-0.6066756873745255
-0.7316166310435337
-0.8250373680852497
-0.9064448367335597
-0.9990544255308795
-1.1030841742428317
-1.2381411617549325
-1.2567274847323844
-0.9426593935093566
-0.2030440755369007
0.6846622678785688
1.08269368070457
1.0730623495599672
0.9059684771450207
0.720391362868199
0.4553843348601754
0.25227870881005443
0.05295518602044627
0.02863390118909811
0.018365030198209023
-0.019547955082681815
-0.24538279590053494
-0.4952686855282389
-0.667400837993843
-0.8026623990348679
-0.9156961751405397
-1.0404891319243057
-1.1167637076058146
-1.2361249610304508
-1.347834818158324
-1.4562567204228172
-1.486691650676215
-1.358875909236038
-0.8181060178504435
0.0760349849161529
0.8449260901157942
1.1076535772598888
0.9797264213299234
0.7924327112584988
0.611449591836092
0.39418140485383735
0.2012804205628333
0.15020568012817487
0.1947348045691733
0.16977736284122052
0.005943398996063554
-0.22582322556202244
-0.4748130492669851
-0.6678278044435785
-0.8827346321655423
-1.080713579488325
-1.2414357595364742
-1.3741454692430244
-1.4585906890322462
-1.5113626216026101
-1.5566157159202834
-1.5889305229420752
-1.5162299023622046
-1.0527903934810785
-0.3112198593958591
0.45708705359693347
0.922022607580492
0.804136134094571
0.5973114488298705
0.3722495031537161
0.12110922537120963
-0.09745193028950493
-0.20824445897219523
-0.1315017534587808
-0.09102425673036818
-0.21288763646133052
-0.4198018992822544
-0.6563697622972766
-0.7881129857626582
-0.8882623166887684
-0.9725970759158319
-1.00208794045246
-1.0351405994852771
-1.0873416396237352
-1.156026478068032
-1.2252705654386804
-1.3015452251384794
-1.1584818235136782
-0.5367963114937576
0.306459814508516
0.983210405616599
1.2255633905773826
1.0898519111263354
0.890666343241446
0.6663925480496748
0.44447636786095024
0.2319313219301003
0.1756258569519008
0.20946325758013645
0.1228655456844784
-0.02215861701421795
-0.20662266380344485
-0.3611719139449751
-0.5219022605921059
-0.6539233543092762
-0.748001008044513
-0.8268912070951397
-0.8813537647560598
-0.958584708360494
-1.0638414069999582
-1.1472238307952556
-1.2124705117757792
-1.0825047429692494
-0.5697574941088841
0.3102435363226953
1.2018899849039273
1.452400478789785
1.3467908538907496
1.1611756859018385
0.9675926171809612
0.7604019838912848
0.539734816791429
0.43570510168679655
0.42274871
0.349923453922832
0.1872487681939862
-0.03881142828990443
-0.2760834813356966
-0.5188472204844428
-0.6894772986008519
-0.8052126317774002
-0.8938020314306382
-0.9987467492639345
-1.0508406136282338
-1.1056593902443483
-1.1872686426956796
-1.278818758419776
-1.3359213208514369
-1.3423966676973507
-0.7081976466438176
0.10051815411700288
1.0860943912828074
1.4719951193264194
1.358778565108862
1.0748128023723158
0.9195605895140937
0.662306997770191
0.37818085941240553
0.3373985273739368
0.3790104156076935
0.4206222966084501
0.2911436365806005
0.09328870484468665
-0.12621268991029078
-0.331185000738293
-0.49911090237602695
-0.6381001444834375
-0.784667849842887
-0.8698821892168354
-0.9408646696025474
-1.0030819138942786
-1.075862536594052
-1.2184793353947831
-1.3086523005199644
-1.1631707790563381
-0.3721337199151531
0.3367338270365589
1.5136347856979901
1.790902729104095
1.6880615286131848
1.4884633374743363
1.2762532603027386
1.040531827244257
0.8035793820559227
0.722580070517625
0.7560690429750259
0.7148516951739293
0.5151477783533108
0.3417510596284513
0.08601404946822855
-0.11340962055710785
-0.2837116833933868
-0.45367609129314224
-0.5903488201819627
-0.6943785268847589
-0.7655186335390092
-0.850834995223483
-0.9658080645818846
-1.1037417939881426
-1.2379076684217198
-1.3123661827774789
-0.9717535937173609
-0.14251118648175942
0.8904093640502742
1.694311672917967
1.8148194002234763
1.5443421779194864
1.313686389220054
1.0707653222948628
0.8082309764096987
0.5783491234313279
0.48013093199899215
0.4731817456789884
0.4075233491792931
0.21856079512232812
-0.02508424270603657
-0.2526345468943808
-0.46115632526900535
-0.6508428878625776
-0.7672285668897904
-0.8185588503342259
-0.8676329429667781
-0.8879435080323239
-0.9597263230321249
-1.0461860100080402
-1.1595608635937695
-1.1703132721833565
-0.7573630012827341
-0.27809298602660343
0.7604673323407312
1.7155609755771968
1.7613427192585192
1.5536464903122642
1.2813996503869167
0.9792660852586427
0.6696480924842865
0.5408597656173969
0.5821445559006584
0.6099151001388881
0.4972844635799103
0.22429147464427504
-0.03056088809613705
-0.29758875412927277
-0.5090062345160917
-0.6513579457524468
-0.7539190833727957
-0.7970790475865913
-0.8751876302208479
-0.9311400812472842
-1.0198982371924958
-1.1199902380114128
-1.209325266030758
-1.1571023742953417
-0.7539486489348088
0.16400462235520297
1.2320568456100491
1.8258630330360193
1.9260420032356085
1.7718456265925528
1.5422412164083321
1.284144716863696
0.9373928432617553
0.7211814205585532
0.6484192543129416
0.5891430710944136
0.45040904705030815
0.21428966695748428
-0.07419492356443559
-0.24210747512658465
-0.43670223530441665
-0.6411768738227369
-0.7441446873495463
-0.8332866920727837
-0.9100245617001698
-1.0068535344983298
-1.104855195386148
-1.2064743124628583
-1.2972622355030319
-1.286276811257559
-0.9011458925965531
0.00043791880457910715
1.0529284205636065
1.7384990504210476
1.6623674462016789
1.4354803602902455
1.2033493452131843
0.9260065452801518
0.6007253617706021
0.37530013543496127
0.32369436
0.32369436
0.12506621157186049
-0.06204204908604746
-0.3025480848287218
-0.5708251643880664
-0.7088119935950363
-0.8525864438176634
-0.979860147678425
-1.0710942092500613
-1.1574083851514578
-1.2331314433479847
-1.3294636849054378
-1.4271844784400942
-1.491938381441174
-1.2894089716364936
-0.579070064187466
0.41872041601960497
1.3213177567782146
1.4418675491496402
1.1670227986603543
0.9132676954543931
0.5884922055961767
0.3004883389797506
0.09311179136852586
0.0764670372878573
0.10293999771585233
0.016380811919803503
-0.18163882189252084
-0.4409419431880631
-0.6700652004160034
-0.8117804939973725
-0.9378394942779168
-1.0349221171221215
-1.132044234959994
-1.1734101039881124
-1.2676829916181909
-1.2972777846695156
-1.3666032076383374
-1.4634520849250188
-1.5049513599887931
-1.252906649128529
-0.5396833125694224
0.5556814037850595
1.3410096462243124
1.474819531516271
1.3173125754680917
1.0776854061863215
0.8254459121784307
0.5468833793371218
0.25593598458654065
0.13633031498334047
0.1489918513878705
0.12427254958174394
-0.031064620165593
-0.23337921708397866
-0.4491118334774501
-0.6275511343242283
-0.7602860044668462
-0.8716354109751456
-0.9687159397597771
-1.0638013670139088
-1.14180875645102
-1.2306739683369268
-1.3474553793474142
-1.4789594996111999
-1.6075780936977626
-1.5783798825266224
-1.0873390810652486
-0.22130559241240572
0.719950233397101
1.327753341918279
1.189060906927398
0.9830009398256596
0.6685828757583437
0.41827437008030466
0.1271427649274524
0.00706357332503324
0.001616685520322094
0.005083905884255724
-0.08246442606169543
-0.27264744155824605
-0.539223971373717
-0.6582860544892116
-0.801391281868519
-0.926219098215322
-0.9936480594845825
-1.0757864027831725
-1.1310207387105056
-1.193804425480444
-1.2640662744802522
-1.3374271097291237
-1.469705240883567
-1.5043679103588334
-1.25486568325969
-0.5760632020689018
0.38392475762909917
1.4500353387095577
1.464797711793375
1.2021275449045887
0.9029601063415181
0.621172431396517
0.29628281282806834
0.12263700672446226
0.1161149522237086
0.13954238793295864
0.1088384890918587
-0.05070147461243624
-0.2912276734312832
-0.5280692088684706
-0.6182421655918169
-0.8116037256444422
-0.9186873268398645
-0.9880543388619153
-1.0088200351773102
-1.071548534983859
-1.1098557693318796
-1.2114085536506902
-1.3272973313043497
-1.363779903488567
-1.3326235352756188
-0.6420332666524203
0.2557258617383704
1.3722890925996811
1.8318680774834075
1.6832494278211332
1.4520801121020521
1.1618846288465654
0.8518318807000952
0.553847734224021
0.4086382121306335
0.4094028913406438
0.40387752692803536
0.2643651862009591
0.07484218321991604
-0.12439862401882706
-0.28459511006758964
-0.4512559009677911
-0.616046050885703
-0.675118025551865
-0.801250953398327
-0.8467387688767504
-0.9022074082587893
-0.9898736006825495
-1.0851412401077745
-1.1898288435449995
-1.2224862706498831
-1.0162607768920053
-0.19792148750777694
0.9753603666442527
1.9307044246275733
1.9131272744336354
1.6722992368807132
1.4178787233174182
1.252730165759397
0.9443195596449853
0.7645500349607081
0.7373814019045386
0.7182131375061765
0.6283367135303125
0.43945351700287216
0.1636009180367007
-0.04134937276253173
-0.23796959097003031
-0.42449579751853045
-0.5274973697208359
-0.5942345394801808
-0.6662054094665489
-0.7039218769883792
-0.7944744354378472
-0.8967831802824157
-0.9794821717971541
-1.0765627257872776
-1.0368834462726018
-0.7109375593810477
0.4587201968904002
1.3320743634803416
2.1002773979077283
2.0811284035772104
1.829092731776905
1.5268155850011225
1.3151543056817556
0.982624262848925
0.8472638427693887
0.8403949927546691
0.8142077617124962
0.6603201159175446
0.449884648586975
0.22583832980163432
0.010579784502251055
-0.1715365677305604
-0.32759572116143776
-0.4544253156094546
-0.5463352824801673
-0.5950522983591202
-0.6587771861158815
-0.716245972206313
-0.8287630919050786
-0.9101012604070461
-0.9846929307209233
-0.7038126730525955
0.14017180487764436
1.1555048166881092
1.8988230228250296
2.1279645755554184
1.9604292315209038
1.7801248903237759
1.5735405976164816
1.308276848224313
1.0874025269757364
0.9786231907334765
0.9588892019911508
0.8340535505870451
0.604695786432377
0.3112713154607152
0.044357318496198436
-0.16370210331123208
-0.36735702423697075
-0.5260628189596153
-0.7203703168952306
-0.7550330199778142
-0.8277323861957431
-0.9186737591659907
-0.981091584868037
-1.0901424376866584
-1.1515743876630857
-1.0258143350870497
-0.480325780715009
0.6389249765496138
1.6057077282246421
2.0313846574898973
1.971767054538383
1.7658755176725023
1.5449189348770815
1.2058206965946592
0.8994669659376621
0.7873089854126853
0.805065568817933
0.7709751398275597
0.5920440355608214
0.2677244811150943
0.06733849087296712
-0.10192974275069601
-0.3247844456421068
-0.4822954271132575
-0.5977519275362884
-0.6548662038954178
-0.7174968011121718
-0.8041064067565317
-0.91975696744248
-1.0328274528738017
-1.0943790522851484
-0.9467675107341574
-0.3018721350200231
0.8270906957935453
1.6984043400410243
2.0745646064096994
2.010389566236205
1.865737117839241
1.6929532179856244
1.3907282605892815
1.0683160890899315
0.9266221926260098
0.9072976322066099
0.8515025003902267
0.6905893451254028
0.44173005080355193
0.20107409981837457
0.0018347493239642965
-0.15629312010749802
-0.29765950907679645
-0.45695084997733654
-0.5449166977657283
-0.6389705115162815
-0.7221942819196194
-0.803690690362887
-0.9405285259404131
-1.0877400153504748
-1.2067577964370615
-1.0181433690092359
-0.08274362770011867
0.9592844290320492
1.775497346065638
2.0894991255970092
2.100764847445634
2.034185898337595
1.7719825936572124
1.4876266306128143
1.1683627520946367
1.0170748
1.0170748
0.925111853173764
0.7238412651813144
0.45223691181470516
0.17430898993593677
-0.05589092576153415
-0.2639637752371248
-0.43835182632608183
-0.5688058582276487
-0.6920293299830179
-0.82895340796036
-0.9329353714834595
-1.0344881968112016
-1.1380225866312323
-1.2632154994162463
-1.3233608752457813
-1.1411701615653926
-0.49103079840958774
0.6255409031128464
1.4830649752484508
1.8056765218404356
1.7677976766803374
1.5928326140521951
1.3681768444145141
1.0432078361728745
0.7535317369989742
0.6358627157771537
0.6017422341273795
0.5166641188764417
0.28499374664908483
-0.041750675141389255
-0.25898463306359754
-0.5129261604230411
-0.6895758442867728
-0.8298214996476789
-0.9130452700510169
-1.0168046827218709
-1.1351466656025915
-1.1837078085398098
-1.2783653290524675
-1.3353551777814199
-1.4311333731052716
-1.502024265139055
-1.5088079618347747
-0.9403645529095833
0.04368777824917747
0.9667221913708709
1.4496761602202624
1.40063071260796
1.249228853617378
0.9927448347574592
0.7282728231011041
0.474025063179021
0.316560920889399
0.27544393850375676
0.20515041549262836
0.03864279585111821
-0.16333877604103725
-0.3938911083141829
-0.6337520127982281
-0.8234984718888658
-0.9317765728075023
-1.0562637474775107
-1.154065836273077
-1.2249746166550821
-1.3022959163184387
-1.3528403214934184
-1.4155511740167934
-1.509504130097977
-1.6078222409631242
-1.6261477902387664
-1.3943920901313018
-0.6888373653838181
0.3233238151876876
1.1700680031164543
1.386016983477238
1.2164873033106118
1.015278233182005
0.8385209976009417
0.5572832166650752
0.2707400434886949
0.14790010617862442
0.12558567
0.07218394209268758
-0.05218172018797505
-0.3220160745421262
-0.5626045306657314
-0.7425302954872115
-0.8952194843076906
-1.044133461336256
-1.1223149014097995
-1.2449073444030323
-1.2938517709496729
-1.3411846806366754
-1.4084993931435659
-1.5046503055850768
-1.5662670194281525
-1.6547454009601184
-1.6950448712006136
-1.419431505980378
-0.74762189164515
0.2787768531539332
0.945290281522648
1.0905652925659737
0.8813680158770031
0.7061967052588747
0.44894312171679196
0.19219721955168143
0.06287177073769483
0.06402171073752293
0.09539793297447224
-0.0005660951841463336
-0.1947687578541616
-0.40148740322708265
-0.5675939247594097
-0.6961000895719704
-0.8070466182145057
-0.9169183545322543
-0.9931929302137668
-1.051990512059449
-1.107473659016967
-1.1693529336287343
-1.2443477795814053
-1.3332157270871197
-1.4077149222984076
-1.3642504065054302
-0.8874256905202137
-0.03638031262142122
0.8898288066813911
1.4578476750728928
1.388480663050836
1.2359989443301411
1.0712703423775698
0.849836820951624
0.5733117859969773
0.3338396254917383
0.2645142277283997
0.24544573553727492
0.15801027403278373
0.01231408505338058
-0.17996392297536845
-0.41666730903797355
-0.5858949110168346
-0.6988458788279381
-0.7966709968986261
-0.8641918403843476
-0.9025165577869796
-0.9541234253596742
-1.044254784627955
-1.162407136797442
-1.2724324127394828
-1.3496452971017734
-1.2823321352455692
-0.8522501879219058
-0.036185995662735726
1.0976679268030949
1.4074983250975197
1.2788511887978082
1.1059510762031324
0.9769113503480674
0.7443144194504493
0.4866273267641923
0.3072227964631558
0.25924058283135665
0.25263136058652946
0.15978136146837515
-0.0665882345085792
-0.21882086648953775
-0.41747399375905747
-0.5888024943427017
-0.6804419519708456
-0.7775976653932889
-0.8604782598219233
-0.9367944497621554
-1.0078941480621053
-1.083095815060374
-1.1473243831559254
-1.2235989588374312
-1.254243074779607
-1.0426430153444624
-0.4290011882385738
0.4558573721029514
1.2480140806509705
1.476879396748719
1.2803391968279743
1.1046756691520088
0.8855716339222188
0.634679313235641
0.4281767305934839
0.3745375814834229
0.4003855654345971
0.31103117463075386
0.11462127975624992
-0.057313588095744106
-0.21462800096063062
-0.3672864294881258
-0.5693755768758108
-0.6618772024068339
-0.7332937859653316
-0.7964925934646665
-0.8225628852684894
-0.8907816489569509
-0.9888376747567911
-1.0922416811589233
-1.197495950467656
-1.1613428973656033
-0.7083837860428284
0.11274989822345949
0.9692131766756273
1.6813037573105318
1.6689097837177989
1.51413797495109
1.3646968071409946
1.183798572175867
0.9025562600252264
0.641106451434106
0.5948511674143389
0.6405820603186623
0.5472084888522278
0.3132374567004023
0.07041779621405936
-0.15589439226700594
-0.3869562160766057
-0.583001012534972
-0.7195882814461332
-0.8262744674879385
-0.9178101163575682
-1.014608524753147
-1.0953297378578748
-1.1883120570703423
-1.2860957092260832
-1.3511302686039488
-1.3710523345399284
-1.1978090318844292
-0.49989004278701976
0.5665460690508963
1.2526299779295265
1.5240432152568508
1.3480488872421845
1.2176601589044196
1.0703300333976944
0.7741688212860868
0.529669550496584
0.45554411216409907
0.5037544260446272
0.47599930342516095
0.2847051705006535
0.06462934130640038
-0.14781396633787955
-0.3360099336956567
-0.48543713901592456
-0.5963744177800221
-0.681009837395775
-0.7543778720435564
-0.799759995786654
-0.8424521893778213
-0.9245127708994829
-0.971229810663251
-1.062263390406045
-1.0826050536871878
-0.7948994584786739
-0.05657795890383377
1.0533380569608022
1.8280082749637516
1.9411435692101318
1.8120072185879157
1.6921259596400098
1.4642850764411726
1.1645254427996887
0.9499190402730482
0.8709956086121197
0.9059808455799824
0.8067762234318708
0.6255311454179441
0.3825581903199854
0.16362384915413816
-0.008142646308804256
-0.1519154600805519
-0.267515639257016
-0.33074973647086575
-0.4399749139244866
-0.5350217652161675
-0.6366418932501441
-0.740671608354794
-0.8426282479410602
-0.9457110736180332
-0.9994856098177649
-0.8674556323369792
-0.27588404314145304
0.8060249637002262
1.6468047422572618
1.9721775664955694
1.9449478197695564
1.8033756335493631
1.6842318516055343
1.427611345673661
1.1122235993387999
0.93381281146298
0.8625090120717109
0.7959299957490394
0.6023565684720765
0.26778417424909795
0.04753197574157028
-0.15357826058601842
-0.3745276195372075
-0.5436369168869108
-0.6670572734813665
-0.7694818281830917
-0.8698261208736957
-0.9510683729341056
-1.0250402920967652
-1.1362575638001275
-1.257947976007875
-1.4085508253795969
-1.3132153067669927
-0.7115961257928032
0.2138255671443965
1.1285399512911913
1.7114888555495107
1.649280967721917
1.4363789040726251
1.326493844135823
1.0353622037153394
0.7896612935546093
0.693637918450004
0.7560557525538637
0.6911403516293414
0.48710756154929213
0.2288949562680751
0.04236173658919265
-0.15632847686567922
-0.2950625009098424
-0.45979132644033305
-0.613322698280812
-0.6702627341902051
-0.7632116491925148
-0.8352386444842735
-0.9246759737039195
-1.078391736870876
-1.1562681071705014
-1.0767091047893544
-0.4799796608608696
0.4406495355793474
1.5927320384851313
2.06651579927308
2.051737621556449
1.9261797879265434
1.793714429434046
1.5500846093302494
1.2469255334675204
1.0432592860313479
1.0170748
0.9926877998440214
0.8140695681904169
0.5995664737631801
0.2640028154204732
0.036160243454680614
-0.15010183487184542
-0.3751707104884521
-0.4722512392730887
-0.6470095877139969
-0.7391382969714856
-0.9115488726388142
-0.9810963112346001
-1.0920752126592213
-1.2256437927520336
-1.33835907889076
-1.3239154373983821
-0.9931913942947721
-0.12552989250629873
1.0465520710589
1.714818914536059
1.8700241756251368
1.7235429041582424
1.5986607469420153
1.337523306379504
1.0355568469756242
0.7850463940986409
0.6651787868232372
0.6023827712187801
0.4992701204472266
0.20657538474614806
-0.10367477441345838
-0.26583381388882193
-0.5687670723434259
-0.7904479599954513
-0.9404726770811499
-1.0271992173700752
-1.075368696414197
-1.1367716139232336
-1.2224320195756182
-1.3439528796564628
-1.5085471699351396
-1.6247153298935397
-1.6163531037629228
-1.3256470218497756
-0.4868499528631052
0.5810138808517374
1.419324797221024
1.6495247178395174
1.4807404638651986
1.24217008603144
0.966898181003698
0.6093319911845965
0.447562497441376
0.39206376358332157
0.41009634633306025
0.30524189793214684
0.059852638155708904
-0.1903465693574616
-0.4481252394560691
-0.6486728271466918
-0.8209334223271181
-0.9519160873740594
-1.0570813927119829
-1.1457293262495873
-1.2079790084295428
-1.3132295909398461
-1.3777842033841448
-1.4690066186143784
-1.6044137385193382
-1.6143927808072072
-1.134488582645597
-0.11593447114537306
1.0173006204644752
1.7779535341737247
1.8985213281146571
1.784886902051238
1.6755996193334048
1.5134783738225164
1.229350457878765
0.9557309589896227
0.8511335846822236
0.8305422634765578
0.7259434417478989
0.469922219293298
0.12640562958767823
-0.15683701368146338
-0.4266045501872793
-0.6658842635538834
-0.8819204311198772
-1.0113887322579966
-1.13642648493991
-1.2336535446136305
-1.3406811171653912
-1.452384230417391
-1.5951277081085933
-1.7031015792707298
-1.7151084885055947
-1.314421713520639
-0.27234966678803957
1.0211127810227771
1.7221784574168353
1.8594539157004664
1.6923760234273502
1.53231391586476
1.2865058147551327
0.978045261773927
0.739943428081016
0.7118749382099038
0.7287782150312889
0.6244243295922435
0.4120323460994615
0.12628353102876322
-0.08657807819678942
-0.302149530330896
-0.4927798070199262
-0.6416295107405671
-0.7684963063446317
-0.8447708904279584
-0.9269090330656251
-1.0373286544222828
-1.1653841516987906
-1.2926063489521853
-1.3819749194898892
-1.0198488222780346
0.10452793306529873
1.0557913821682932
1.9151285734071868
2.2105087490666646
2.1002841997183035
1.9358895536657443
1.6799765027348805
1.3451084931589392
1.076193665178125
0.9638495964873928
0.9261819431867039
0.8075868493535682
0.5462216954619233
0.17699461556004026
-0.038439005071005714
-0.2550024779842165
-0.4700110861116277
-0.6286920729687202
-0.7579924915585531
-0.8617558005712967
-0.9512140738616461
-1.0553933493045136
-1.1941273733485982
-1.346673857921637
-1.4339200081708063
-1.2278772418447692
-0.5122787731620967
0.7401923919687181
1.7389137431462576
2.1303865953213545
2.127448511694697
1.928083530531911
1.6864200927410513
1.38290568765333
0.9513198235691089
0.86849328
0.86849328
0.7590660610036157
0.4718381952994359
0.24484281975666697
-0.06912540204658159
-0.2764728216273276
-0.46039247157361174
-0.6116337509725145
-0.7189159844835914
-0.7983698202836971
-0.8983499022848991
-1.0267727283950694
-1.1554065656323356
-1.2854369707188327
-1.3531012213978706
-1.136630179388106
-0.3685248703421675
0.7569370468841365
1.7455435318327965
2.284588796507173
2.2624717106569023
2.0187449954847354
1.7002418900896648
1.3126669433833236
1.080176866740261
0.9786240578160874
0.97581867
0.8347596703880887
0.580543053727127
0.2809696928487503
-0.008843703136076367
-0.29593080246476644
-0.5068433067084815
-0.6790149145530373
-0.7534734371105702
-0.8516997593812867
-0.9413983293531233
-1.01767291343645
-1.2059291172032476
-1.3342830258318796
-1.3961609112108968
-1.0406478183040866
-0.22349616744521633
1.123427638753821
2.151273452593977
2.3943217765639853
2.2876200331823267
2.091599442382473
1.8073681730430684
1.4279947305225047
1.1078940512317053
0.9657249329848568
0.9199500390755488
0.8258196732369674
0.6043693585784697
0.2792258072333288
-0.0529931505454035
-0.2911013738765618
-0.5565212466056836
-0.7939726685553632
-0.9522157913108128
-1.112786731047025
-1.2310036351201712
-1.3945825442893593
-1.6047418173484307
-1.8140160780866252
-1.9132847
-1.8432473909352045
-1.3552742029534148
-0.22768837571912326
0.9600471953638889
1.5803323264312177
1.702982181861474
1.540497677740626
1.257516588155427
0.9737349147007754
0.6517203772167928
0.41099129916959953
0.3315385858530204
0.30981660394871513
0.1518334161883218
-0.032513762445299854
-0.2608781162193379
-0.5430732559241782
-0.7735606837403534
-1.0347327915243614
-1.1200371131284366
-1.2416954977109314
-1.2890813005436166
-1.333764545328181
-1.4230098245427432
-1.4938854023755308
-1.579818154632839
-1.6363341437269052
-1.1702528110263075
-0.5369382835116772
0.6559080104965634
1.5107193797408485
1.7046782227637554
1.560205539894709
1.2717327676580075
0.9453835036733212
0.5847748800918677
0.3813353225084963
0.3563426660958437
0.34545375032934444
0.25377046888748955
0.03770199890827791
-0.24377001957276045
-0.4552468810232839
-0.6838349556705987
-0.86671712569841
-1.0054094934746607
-1.1027532560804627
-1.1877541621250527
-1.26954283230086
-1.323690773389289
-1.4286951248109667
-1.5587868948945742
-1.581997783511379
-1.2832460632168627
-0.3060936487158389
0.6944600398565748
1.8390079043426977
2.040327494552078
1.907169428299431
1.6486503133538104
1.446318677686401
1.1455860890358347
0.865248830802871
0.7294040169919134
0.71991176
0.6623206121352642
0.45986714531825257
0.12308601812062969
-0.20294925770333166
-0.4985991154202091
-0.7703008544905205
-0.9609867212495522
-1.0923790532101958
-1.1923065850271934
-1.2812724203163104
-1.3548773153588656
-1.4615080096762947
-1.5513021230687025
-1.6566132503343554
-1.7044375596449104
-1.5008765329257892
-0.5121393696106794
0.6411160051566795
1.5976899294598153
1.9436649236016974
1.7445690223994252
1.496704171194497
1.190304083980003
0.8600471397099024
0.6371463324479316
0.5900492967069438
0.61095198
0.5217294725833954
0.29439314693145413
0.050784333779854224
-0.18058533625754425
-0.40253196414000275
-0.5990393029154277
-0.7363446341639635
-0.8279176138870246
-0.9146467955395381
-0.9914748631332119
-1.0858653000107643
-1.206009340072975
-1.2789710029647656
-1.2197059913851032
-0.5721890432386513
0.48668155544239744
1.696536403907647
2.298156619161908
2.2433038844361897
2.0341041740043284
1.7703537234137312
1.4394593806431881
1.101029930291661
0.9224917271239697
0.9410361486082783
0.9143991185862707
0.7472137756234
0.45923145902069756
0.1756798619559991
-0.09523158533806124
-0.32232902286001053
-0.4785248629699781
-0.6039175448969665
-0.6993870169716193
-0.8095022086284163
-0.8850363559347256
-1.0063082643828811
-1.1241946958596212
-1.2558786840197305
-1.1307148578934894
-0.5502939121044628
0.7108272868230235
1.7738985786739092
2.2897057663721507
2.35825856940224
2.1564742786146196
1.9441416639567959
1.6526992906950433
1.348790660259395
1.1743273371610323
1.105022942951913
1.021581576703983
0.8001539060167201
0.44969183223685577
0.11562029780348038
-0.18955143330448618
-0.4452450619144905
-0.6513504635437425
-0.8300399987149312
-0.9409772858808576
-1.0278892583044137
-1.133088221108259
-1.2404427593386502
-1.3550387501909973
-1.4763586157259692
-1.5005476702218876
-0.9589461839638777
0.2528208287670706
1.8600891682374783
2.1883013254287835
2.241501141653826
2.092278047079013
1.8127624030132103
1.4849813577954114
1.1735391441074783
1.0237010302773917
1.052146489481453
1.0460024164555752
0.9103288965216403
0.6526928830372826
0.33369617406390367
0.07673724818475425
-0.12967701340024002
-0.3168738111615366
-0.4812724367850718
-0.6266942638287523
-0.7222221023371671
-0.8612432567928406
-0.9737027359917393
-1.1111272823977834
-1.1839597962437765
-1.050759933979813
-0.093854358828454
1.179227558975588
2.417286563979961
2.7324504273961585
2.6462140999474366
2.4538124712160956
1.6846592930883628
0.9523408415199957
0.6588374168717843
0.6243970023691205
0.62085741
0.5501863850457462
0.4186658615763762
0.2746347253068133
0.11547821442558118
-0.024903108352481152
-0.10256087753979198
-0.20993172256758208
-0.3084551083799988
-0.36075074911973476
-0.40368456273802555
-0.4324935824080777
-0.483912325341214
-0.5329331415021945
-0.5567226223752555
-0.4067203956931916
-0.015799375957535722
0.6367355652419386
1.2159889932400751
1.334111775135314
1.2802225699780065
1.174488019413269
1.0715412062201313
0.8754235449324514
0.6949372360942766
0.6273568117657139
0.62085741
0.5571146181774136
0.4342236620969342
0.2525602902413781
0.04614390918347058
-0.06564331830047329
-0.18140799612821285
-0.2844595124408125
-0.37924213027587367
-0.454455647434029
-0.6058196982344277
-0.7088467664198039
-0.8025481622607339
-0.8456968981587325
-0.8495738861209619
-0.5665831542709832
-0.04945440823182154
0.5345551795881912
0.9994274568123959
1.0844071638214805
0.9861072127294083
0.8609020964356765
0.7079673563039954
0.4990923662331938
0.40450385971576513
0.4115890006259709
0.407580352286375
0.3244715882739741
0.1851765352441911
0.027444715259421756
-0.10184639764441869
-0.2184098773708653
-0.3353901285183527
-0.39123106890948495
-0.4421878408136995
-0.49529238602510406
-0.5447259670210802
-0.5863378564236592
-0.6691614672700951
-0.7038241619508498
-0.6245444351457538
-0.2750046078535263
0.43692988323311344
0.57133024
0.57133024
0.57133024
0.57133024
0.57133024
0.57133024
0.57133024
0.57133024
0.57133024
0.57133024
0.57133024
0.57133024
0.57133024
0.57133024
0.57133024
0.57133024
0.57133024
0.57133024
0.57133024
0.57133024
0.57133024
0.57133024
0.57133024
0.57133024
-0.4052813792637181
-0.7771519203411731
0.31328900634716095
0.8751709387556796
0.8972640737537136
0.7072856785559473
0.3189219575604425
0.03829881322748753
-0.017821902974305557
0.044595924408113
0.11969650873646161
0.08815133643474533
-0.029546881320966816
-0.12295694098476156
-0.2055351065696865
-0.2778989869052806
-0.420624111626829
-0.5976193987171253
-0.7490038633490823
-0.8950186224444849
-1.0310004349044086
-1.1839464651426024
-1.2743264757143258
-1.2013595811524405
-0.7109048198157077
0.17409430664505143
0.9305227655599805
1.4746683033765118
1.4902590566132492
1.3486169150050014
1.115121277402616
0.8673590774418354
0.6249876091319498
0.5726631882589287
0.6053920646674565
0.5405977117765003
0.3866880348473045
0.11621078145651892
-0.08594218447390017
-0.28319447004434495
-0.4654957635957694
-0.6046655007867288
-0.6967411733690706
-0.7827529394718092
-0.8552182745070147
-0.9521604824685256
-1.0478216609678346
-1.0926210133617307
-1.0200069339532496
-0.3340930013098258
0.4349675535037605
1.3318047745985249
1.8521492180738928
1.8714480283145398
1.8049711019841501
1.665259113398776
1.4529419247700568
1.2260598988306874
1.11803509580928
1.1065978840553172
1.0063039394170903
0.7677707661694707
0.5123276678462657
0.1993821992303601
-0.049590115781326556
-0.2765756624638051
-0.4463585113325056
-0.6227670554381785
-0.7355475858829267
-0.8533592613824909
-0.9408370684211139
-1.0351712493723881
-1.158932780483438
-1.2008528981414863
-1.0654626639837437
-0.36135802801770556
0.521826802415589
1.5114494447050726
1.7271963942469764
1.6751549441414442
1.534870558619189
1.3174909983678131
1.0138328519528723
0.784967451836729
0.7301097470084205
0.7055766919457157
0.6074216704915257
0.40430296403053395
0.1513395873459652
-0.04977065066203179
-0.25704388953153157
-0.4312732906386897
-0.5614261649725797
-0.663690304941263
-0.7643588381797151
-0.833725850201772
-0.9282221271370845
-1.015373821104001
-0.985675266158898
-0.6859960860595992
0.0199007044904127
0.8798935311434731
1.4814004105949299
1.661119447322993
1.6379618265268068
1.497394237400299
1.174841065976491
0.9285192216848672
0.76943893
0.76943893
0.7062910586645956
0.5488422591717153
0.1707246891455085
0.06238814661758127
-0.1942106766589397
-0.3786777465646327
-0.531253572866568
-0.6792831841755409
-0.762069679432925
-0.841715670170581
-0.9441270945161638
-1.0450260942807321
-1.16991448357768
-1.2392814955997369
-1.0725060990059554
-0.5141994243115233
0.298461316147602
1.280436166648184
1.4906484283170642
1.5171450060945644
1.4471865136986348
1.3009778786561148
1.075417372419316
0.8409244592439022
0.7055681739310043
0.6303119785879923
0.490094956997443
0.2542690568954215
-0.011776820968147722
-0.24901991931873138
-0.4973248786742088
-0.6798458851304876
-0.8174149928638214
-0.945135094419955
-1.0377192760048148
-1.1215484154487794
-1.2160762432924694
-1.33287500782997
-1.4601834164737086
-1.508744475392633
-1.3425919212245387
-0.7469627687522523
0.04618312280684067
0.7456695912493918
1.1424899724565625
1.1201522514440139
0.9845833962912314
0.8363890149461766
0.552543072218545
0.3187252969589405
0.29987311373924197
0.2941035898956734
0.18903836982838157
0.028473722047640468
-0.15873686960846037
-0.37419915775071827
-0.5727541931980601
-0.7326199292121179
-0.857019107956441
-0.9566615259742921
-1.0267727474555721
-1.0948208730195326
-1.16209943500125
-1.2660294069063212
-1.3707021064581157
-1.388953714017063
-1.1132239354469022
-0.44135771856995054
0.4008986892483429
1.0269044761046329
1.165055275350979
1.1389826120206075
1.073810715209731
0.8430134568041693
0.5551920040250795
0.34037097097692265
0.3171303890730019
0.2647004425261614
0.12498233865350328
-0.06589364678240087
-0.2787555156010181
-0.48928981769299185
-0.653344313442084
-0.8338343536093248
-0.9450203290441869
-1.0433893895178197
-1.1162079000589908
-1.2041247623531584
-1.279313913816562
-1.3546408053504004
-1.432350010500128
-1.4805001496643908
-1.369562820489339
-0.72969208788894
0.10399281298144947
0.7521067816242546
1.050572196243762
1.0474974083985533
0.9504507596426881
0.5158562353856226
0.3654864455982008
0.265619410113287
0.16575237462839426
0.11066036274660443
0.049517083067397695
-0.10606882420522146
-0.29839244131698195
-0.478183059772014
-0.727767891652701
-0.8090101437131078
-0.9668587662416147
-1.0632402194603516
-1.0979029729538956
-1.1718255965578086
-1.2002981040685705
-1.2488555861474218
-1.2973750560131243
-1.3388192345190713
-1.177916002747434
-0.6884650327891413
0.07274295972485295
0.7985604085821513
1.0625977134253035
1.0331768108285018
0.9345674411702247
0.7174446062565748
0.5232419428304123
0.3518675061650298
0.3035014995116343
0.29586080160286415
0.22093873017755833
0.03135993640943974
-0.2100086109570984
-0.45276337371384767
-0.6416521942122414
-0.7926523183287827
-0.9332898830744086
-1.0165136618795843
-1.085178085832583
-1.157050404995625
-1.2330413062990269
-1.3272738863824811
-1.4577550177411047
-1.534024833022724
-1.3513420927131843
-0.623614353741434
0.13014973386478257
0.8962024637715742
1.1236580720337062
1.1393151969981843
1.1071375516044972
1.0658316459395434
0.7778408974453739
0.6229336187752762
0.5222840268270753
0.4651110099068339
0.42078320769148825
0.24738648056485804
0.027220258931792418
-0.1662648062056326
-0.3942461779596035
-0.532938587744999
-0.6550229994903497
-0.8000968360205126
-0.903398611774602
-0.99075107297964
-1.1527265367759272
-1.2391017175507266
-1.3493028017008235
-1.439788921838799
-1.4752523263895645
-1.2351082428353133
-0.6277892303843976
0.20583194282003553
0.8851985695308028
1.1306262674058367
1.1606231025221514
1.1198851459611396
0.9834555161669135
0.762396725924314
0.5732646776604182
0.5244923741671647
0.48259199310450535
0.38224889637866266
0.1879777745128259
-0.011436434531827133
-0.2541212932572044
-0.44773285699094356
-0.6253359537354428
-0.7689530356610308
-0.8664205112040293
-0.959460229714089
-1.0210448522547466
-1.082290538960559
-1.1661914970956033
-1.2698506049693916
-1.3300268320661894
-1.1536506374483195
-0.5648460320185607
0.23703882563008047
0.9602735643738759
1.2592964394783843
1.3103672458616562
1.2516294399148973
1.0865588400114135
0.8693331923026842
0.6359747742850049
0.5458018175616541
0.4980991164265796
0.39457739458196894
0.19623539902671305
-0.03143399931779736
-0.24063156973817984
-0.4292227934531709
-0.5986833923447089
-0.7317581986177749
-0.8706674446863536
-0.9712937905499566
-1.025693021366673
-1.1084632345761232
-1.2304357413185145
-1.3136594697127137
-1.37640709703555
-1.122525013211726
-0.4337438520768847
0.37073872093528515
1.2142172881122553
1.5480280580679455
1.6114008999999998
1.5898296041678759
1.4512832635950788
1.1832180523175024
0.914144545538952
0.7919664971916521
0.7263950170488817
0.6136311475611186
0.42201401106451303
0.19196131791512022
0.012014556606189275
-0.13654257466669745
-0.29231117377070437
-0.4586036947064388
-0.6210881988272587
-0.8152407700449269
-0.9989010947130869
-1.1539937909287936
-1.2770626384651143
-1.3739993871330924
-1.471116298410653
-1.4272628913473326
-1.0322722114427538
-0.3089968951306702
0.7190007695336876
1.3528462928378395
1.470414093908884
1.466089406306644
1.3509446250311545
1.079760112079959
0.9078639100892838
0.7539455170008836
0.6789646082410008
0.636297730288674
0.49348301048909904
0.264540236257528
0.021818113047900656
-0.2096056384072766
-0.4113262101734707
-0.6254164489267585
-0.7455341386997603
-0.8809668139002943
-0.9957184214294393
-1.078665308602584
-1.151264622279238
-1.2570817303573245
-1.3568333540384356
-1.322573566170535
-0.955807767977348
-0.20409862380359178
0.7621777364831412
1.4903857086083103
1.7014458711665796
1.7274245682578186
1.6544384578786624
1.4931253714670254
1.2286713658404989
0.9581940931255457
0.8839223800356661
0.8058416436698081
0.6437466895653632
0.39702866060960823
0.11636754044865642
-0.10554863974013273
-0.3408477232754213
-0.5284323594895816
-0.6915215898510723
-0.8314767897974427
-0.9397468048350652
-1.0285049607803003
-1.1391016070578368
-1.2338187605860171
-1.3695667162638898
-1.4372821327615977
-1.3383059126720673
-0.6020813176743911
0.23392003637294126
1.1096164168993328
1.5138713238897676
1.7104552
1.7104552
1.6121359805926376
1.3826887292403318
1.0783536184436258
0.8183517161664239
0.8115679866635642
0.693303801608711
0.45758398408461354
0.17044040191566528
-0.08586627423498333
-0.2891575022800523
-0.5163254260584447
-0.6907443839601319
-0.8143750836208227
-0.9654218686344711
-1.0320133483300946
-1.1407161153105705
-1.238672844250628
-1.3557710449306037
-1.459886000829402
-1.4775921508353775
-1.2046684806476973
-0.4919584495992839
0.4852931410422849
1.21775720833775
1.5267568966078875
1.5185919107491836
1.417668829747695
1.1907987800199746
0.9355481307293682
0.7194234358851591
0.6693018893688834
0.6309191336985618
0.49631642780968477
0.24462381598404234
0.023181749337572555
-0.18416284382359513
-0.3682984046122899
-0.5858349888806831
-0.7425085567875113
-0.8716317732380411
-0.9512061883001346
-1.0161331514500616
-1.0861063113113276
-1.181353476578522
-1.265203446900136
-1.3322119514671131
-1.2902064389907923
-0.901212620210166
0.03981083908080718
0.9264520506537643
1.74023249603519
1.987099654008694
2.000760878160854
1.945466120710923
1.7955958476943095
1.4001300745977299
1.2112619629411678
1.0990774654863629
1.0089460894143316
0.9188147133423383
0.828683337270345
