1.4456038
2.080111792761738
2.0517621159856425
1.7600298950199391
1.44236733765008
1.1701925372684856
1.0273698690084692
0.9692172392831601
0.889764416334247
0.724423046180398
0.5072731516920341
0.27764733501346905
0.12241568635635722
0.005172205992422928
-0.0779147894428772
0.1629821835731075
0.7106928423843932
1.5380826604964248
1.810511381702098
1.7547855407557198
1.482055443579877
1.1242930868653505
0.814501261687191
0.6854493075755697
0.7143709915001154
0.7180824071525951
0.6357340523956931
0.44914190402730075
0.19946100036435505
0.041451538446186764
-0.11842144909825925
-0.3320747509003171
-0.23662666635028795
0.15895340952812603
0.7677967728247203
1.2840097350346706
1.4232484479467185
1.1866532187230159
0.8995231607531154
0.6688216369881318
0.5190872489188726
0.45077536259144985
0.43356844336894174
0.3440931952333877
0.21139850803584803
0.07598863523401073
-0.050040936109086324
-0.20778544003278296
-0.3127287973861868
-0.38685474937985787
-0.282902157901884
0.0870795146674671
0.6749971869746727
1.124917446746712
1.1797632720533107
0.9222176463498908
0.6641137461190227
0.4052298762030929
0.2707023872765287
0.2962535592314159
0.3575685602504127
0.2963839039912538
0.1426001889417083
-0.04415668861383734
-0.1632326231950098
-0.2876183775926418
-0.3621645165862145
-0.4446115410083509
-0.3966715561789347
-0.05501782286668433
0.5735795152893051
1.1245980785720358
1.264952595435763
1.1053602919256387
0.8551389239306065
0.5840228185621472
0.37185763976287434
0.28136666540878535
0.22413951997292098
0.1398037000047683
0.020864412802338805
-0.15592521228931205
-0.309009691922305
-0.4517138614415381
-0.5569675166708484
-0.630934776831801
-0.6940426785848656
-0.7339600655991751
-0.5491026716106405
-0.01029545482922628
0.627395348825495
1.072845618249398
1.0380209028543104
0.7977653816632688
0.5520387203062271
0.3439758397424084
0.20532735745075625
0.16510014468344777
0.1554356928814338
0.06990367631214175
-0.0513640045437893
-0.23175732392046694
-0.40793071361711986
-0.5639371818509612
-0.6354036938037754
-0.7287947031422648
-0.7920464529769446
-0.8567949415952398
-0.726564078311334
-0.2570377813369158
0.3418401592560655
0.8143766179357756
0.822400435705464
0.5312261585411148
0.23663194498838092
0.009905475527858261
-0.11557604026754632
-0.19250421333103407
-0.20362528332188984
-0.25614642158220546
-0.4191394645125888
-0.5675114382676802
-0.7125819513611695
-0.8043725104586923
-0.9150806244469383
-0.9294053894751202
-0.9674404
-0.936215245826043
-0.594967163612427
0.0510561353830718
0.491985712261083
0.7334077424788135
0.978835448722071
0.4718860328802744
0.007695862644505837
-0.3096356102149543
-0.41717890131178326
-0.44590015190524274
-0.517610022951476
-0.8227750130556223
-1.145676194318843
-1.4495243387072445
-1.6476329061423158
-1.757571930121214
-1.7747846
-1.7857826615110748
-1.8161842755272657
-1.6048277545140537
-0.7147184724265767
0.5936802801402115
1.5979808699597664
1.8062320544884343
1.4143203842205507
0.8567678531820115
0.3308403515308699
-0.07320359806881166
-0.290285771753364
-0.3302765821295898
-0.4207521257988202
-0.6776769622236134
-1.043580710934085
-1.283084128817673
-1.5236633378037279
-1.6730902971598858
-1.7689142432655778
-1.7952889268279435
-1.7693572189846163
-1.505677801698356
-0.49443491813670104
0.6487877342476848
1.4299860477415105
1.3103832785621297
0.8490455650688338
0.38025775062453265
-0.02235959067915469
-0.3135845494475112
-0.40345310556948716
-0.4251092024618324
-0.5625975909687598
-0.7940161507793264
-1.095137385032153
-1.3629881273387443
-1.5163051489076083
-1.6556987522373832
-1.7915901260487341
-1.9158279482191336
-1.9314718618042315
-1.4739899286934315
-0.47106282916967157
0.6900469661010665
1.1826109905838809
0.9697925485534358
0.5290761435211753
0.09678923319848332
-0.24252771315039529
-0.39194417893773276
-0.3537714629623747
-0.38885862564779466
-0.6138387387790907
-0.9689400637987189
-1.339838073504553
-1.6412963313452407
-1.814286755527774
-1.8936543085759485
-1.9492171177245423
-2.015505353358701
-1.8644676898463408
-1.284117233595323
-0.22877012959312673
0.8875670101027644
1.2144367576785058
0.8504490496035921
0.330460883972937
-0.14546088355358347
-0.5157930361045219
-0.6411353478263792
-0.6511894802194328
-0.6892530959807501
-0.8242287217501111
-1.058064301766957
-1.2941063954741665
-1.4909505808836265
-1.6174003899363922
-1.698696410323756
-1.6975223989622443
-1.2758107247832144
-0.42421031984358026
0.5123351052259069
1.1229435752941246
1.0263103861175522
0.5353737346274916
0.04023331316124262
-0.340616672055316
-0.5224787405976621
-0.5392239381621983
-0.5588896628124455
-0.7221572477511271
-0.9799151585245492
-1.274143777473519
-1.459718624656995
-1.6270137938177642
-1.701786435570443
-1.7367823954498613
-1.335324853422412
-0.405543874768286
0.6555175057352893
1.5407313640064646
1.507010346654073
1.0498036402965305
0.5260913197163009
0.15480942744291015
-0.26227535733087826
-0.364662046976664
-0.3746994211853464
-0.4773751561166703
-0.6864951912475276
-0.9306070830677254
-1.218890808297021
-1.349716622968431
-1.4596924308326353
-1.5229051348556446
-1.38358963776931
-0.4026062514969375
0.7969534457923108
1.6152108523248474
1.600536735533026
1.1474036001844472
0.6442885518793343
0.2689001899965545
-0.0070586186817794975
-0.09950858445330522
-0.13035514500096468
-0.28413675633961344
-0.441881263460262
-0.7450910649549146
-0.9301704528028033
-1.1039193320848981
-1.1935244016800952
-1.323564612085679
-1.3665818901610134
-1.083705481698357
-0.21417047377284973
0.8229139721227338
1.6455036708648763
1.5527770166688613
1.2158224183120456
0.5984472627958091
0.29734073139333106
0.021022565860990595
-0.07070908985934994
-0.1646506812267786
-0.3562054156714013
-0.6305967371272082
-0.8688981977865358
-1.0604706411104974
-1.2068317472997871
-1.3497159119511712
-1.4698457043371256
-1.5018588488356153
-1.143558130415289
-0.21975545625657134
0.773394853434241
1.3903261135112333
1.2053207188871466
0.7838964505043833
0.20803997084147052
-0.026966777549306903
-0.25424339841375215
-0.26882740331946775
-0.320351113691715
-0.4980422172158733
-0.8084352612359209
-1.0723393135967005
-1.22114448285601
-1.3111397267969833
-1.361315658921865
-1.3284865321669126
-0.9444322662558813
-0.08596895467113191
0.9622866476564012
1.5795853857235427
1.4200287185405742
0.9399796036846005
0.3518925422703148
-0.07271543761252783
-0.22630420990154368
-0.18842159983002252
-0.1858194349429101
-0.31167864134975737
-0.5446291726343637
-0.7997723004086735
-1.0626279591453198
-1.2462090773403676
-1.3645309845699505
-1.2604332576068065
-0.715440038517367
0.45167311402156096
1.5449545470967172
2.0519759324828235
1.7795472112771622
1.1888805741720088
0.6818503998819396
0.2322939963115769
-0.007593890613097912
-0.12236890230931372
-0.21050977249505917
-0.3344090825315238
-0.5590239994167636
-0.8066050511125729
-0.9692259047792942
-1.0847793850439915
-1.1933115220995998
-1.1790518091549471
-0.7391790248734808
0.3320594062471014
1.4698717957108682
1.9568203864697697
1.789152754258837
1.346927495542171
0.8086447023353917
0.3277204261939843
0.056613549031220844
-0.03961332614600087
-0.045915099487641345
-0.14286564816267286
-0.3863349223560205
-0.6536391903509684
-0.9684552004542557
-1.1469323387717443
-1.292976075620109
-1.3811794730788665
-1.398024
-1.1168658303345034
-0.3021552583954894
0.9271049758270259
1.8655425533024623
2.0298278468061755
1.6350144957756214
1.1378637547395356
0.6397082113751495
0.2604161963371843
0.15225669982785692
0.12422534114025105
0.042994388971565406
-0.16078115616764085
-0.5712355550772557
-0.8718858194883292
-1.0451974061814442
-1.160808456684873
-1.2135129482357176
-1.3154916626855127
-1.3810665574766077
-1.2426299232097842
-0.28706058255602995
0.8535340282509379
1.6759318798270033
1.630731995641531
1.206282080094688
0.6872792884041813
0.24780507536673568
-0.026335164416189744
-0.1627235781289269
-0.2129104491723357
-0.3945857392116721
-0.6537796684587927
-0.9188984740231854
-1.1586113116521697
-1.3851992336811296
-1.5320728722848906
-1.6119724324357285
-1.570052345587026
-1.2288082448241129
-0.43231647757689845
0.7354462980457964
1.3002372176345238
1.2277784123086697
0.7409666037940408
0.16867315480961984
-0.2615000175700823
-0.49121313013428813
-0.5246020284206523
-0.5203291096165577
-0.5986574000107855
-0.8189899964042947
-1.048241308079973
-1.23078326312295
-1.3581865772242323
-1.4282248823031134
-1.441889003952635
-1.0906095926133816
-0.2220113235363208
0.8008613293508269
1.5303465006881447
1.5297753841835269
1.0063837177046508
0.4673976165493366
0.05031176050232655
-0.20422209104028394
-0.32398217000220136
-0.34549083301699235
-0.45094027012054533
-0.8123805187873215
-0.9808053226176363
-1.213527411095077
-1.3252299610208895
-1.409497568290407
-1.4136921711865855
-0.819632839922238
0.28958346444986627
1.3748643133458125
1.7958146870000888
1.5500280448467363
1.1083944630759104
0.5719203617746406
0.23735814951972706
0.06885529252991536
0.0551956159999999
0.00025235207059726844
-0.16080582244600827
-0.3662856611478238
-0.6168819538818914
-0.8480196973501628
-1.0469886303457436
-1.1296724834519842
-0.722617846777396
0.16747563137866167
1.1461074491223415
1.89539511720906
1.789864885615935
1.3460986436321754
0.6977128423878602
0.3217934675111762
0.10493798758818179
0.06398360725457769
0.033876049022701325
-0.14081696946558026
-0.39512169234908334
-0.6339765562489126
-0.8527445646964964
-1.0551077535487627
-1.1504384
-0.7460734692822697
0.18585142007948668
1.2508098725831283
1.7401136033113427
1.488497663561069
0.959199593158282
0.400528641985373
0.05641135485551388
-0.08228673976311159
-0.10627323
-0.13809419116984428
-0.3089942425531905
-0.5466838606482002
-0.7673194039580221
-0.9628486207870766
-1.0879495586311327
-0.9352525614797176
-0.17932115734222454
0.9950140383773252
1.7165530087016372
1.7667130417047685
1.358751375881551
0.8662575839728796
0.33689663844004397
0.053853246957360976
-0.006141351876329693
-0.019250154060148076
-0.1153532398487519
-0.3458304962064052
-0.6732061538395864
-0.8899061708733655
-1.1248628581795415
-1.0894580295212521
-0.5588075214577377
0.5584210555721764
1.7717170382696033
2.1102572425195514
1.7829224664425138
1.2477136763999528
0.820056652652119
0.4305713143361906
0.19070658380532518
0.16284151
0.06364370008443257
-0.1592118718678755
-0.3776565033893406
-0.707714660806694
-0.9146150995979528
-1.0811444527910044
-0.9620120103248229
-0.17397993031623427
0.9840682290479323
1.8878872061243972
2.096396908117414
1.6716897884892858
1.1200354246847137
0.6606802081482115
0.27515081251135437
0.14467929277888467
0.08378371101743765
-0.04344393548733193
-0.27845068224065767
-0.6199293997229361
-0.8119847627294438
-1.0184679276714612
-1.0880983703293234
-1.1127534017051448
-0.6371180283370474
0.36349224748895376
1.484824662658305
2.173665389422355
1.8892185198266778
1.3694787485086672
0.8510042205844074
0.41451184894718457
0.14850891330669286
0.05440131654736138
0.02460469493006619
-0.15813140563237182
-0.41399208777947866
-0.7017332742673056
-0.8598545978454784
-0.9145790026309568
-0.9315634237162019
-0.9075637840581208
-0.5153318720982735
0.5566892448904794
1.6181974786820748
2.1256780028757065
1.8475001384588559
1.2793158507107203
0.7383723942357707
0.31131811498578005
0.0821038215691288
0.05076548664311763
-0.01686242856423309
-0.2486426309175444
-0.5443303397908777
-0.8070402293771394
-0.9984502103032934
-1.1378034276161448
-1.2420678519788335
-1.2238210806211143
-0.956387530895492
0.05112667948533456
0.9797979833590142
1.6250577778942534
1.5176466790192022
0.9057968388459148
0.6190003856060178
0.12270250988742795
-0.019347515789289466
-0.0253601822306155
-0.05413128049382864
-0.27149513133123115
-0.6031431373259506
-0.9052292979701676
-1.1104954813132881
-1.2225811048518387
-1.329221168394661
-1.3635207616363654
-1.1595604311527168
-0.4676236524530156
0.5744540246639606
1.4780232528478157
1.7457491768428466
1.4035759031878747
0.8818273194971774
0.4023482668983972
0.07319529766480842
-0.06779203585241612
-0.06384007623392088
-0.12286046252523083
-0.3328670864919423
-0.6104146852659483
-0.8380958246046661
-1.0075614552503556
-1.14890884385667
-1.2567479802981716
-1.2245144343248742
-0.6145178413848473
0.3526908256621913
1.2893264706802456
1.6551286843119508
1.3884569078741738
0.8885292995028986
0.338790319944614
-0.06672766711164396
-0.28457603763759826
-0.32156502
-0.366294796572823
-0.5204524870281515
-0.7819033244183385
-1.0486176840227814
-1.2326349305371056
-1.3523046765756515
-1.4356242657580687
-1.1930881798337196
-0.3577750970267193
0.8023966588128555
1.3952466199433167
1.339914542736002
0.8004532298640343
0.2133860452081937
-0.21540448915401506
-0.3990316689437084
-0.40638013652332466
-0.3689091482372465
-0.46481161437575047
-0.6844879136821903
-0.9604742576528222
-1.170558826307081
-1.3823555113543324
-1.5052943147698008
-1.4471464490176775
-0.807764293688918
0.3005731303173993
1.2335525423315554
1.668361625461265
1.326571635270684
0.8227845574408972
0.29106299200704566
-0.08246121728807701
-0.24318725164506205
-0.22114762461969684
-0.2543143913859664
-0.4225926617559987
-0.6806809833378832
-0.9107530699305191
-1.0375617248486053
-1.1808593570995893
-1.2458515670252635
-0.8811727607342139
-0.10609061544971182
1.0846526757489205
1.6276045683676865
1.5793634179980187
1.2176594457600278
0.7013943480094013
0.20147019246567774
-0.1572695550941716
-0.16009618
-0.2033703448951071
-0.3087627680919872
-0.592093374897651
-0.8805843100582909
-1.0869476260307342
-1.2705974018611224
-1.3450711185137452
-1.3424160718424458
-0.9308837665842851
0.1719615440715514
1.2797725931111572
1.8713583578668946
1.4595363323523212
0.8747495342374262
0.3908480671233998
0.059339239716888495
-0.08324494507597197
-0.07666862213976326
-0.13235849450434006
-0.3147785184304591
-0.5752506459383189
-0.8474679162908172
-1.0483456487002498
-1.1805099467188234
-1.3610158358518067
-1.2963897827453983
-0.6178834280335251
0.5541466964499996
1.45396937026922
1.6949722645833698
1.2484461691273454
0.521241310762932
0.0679133754701099
-0.17728532535341196
-0.22932689810862109
-0.23717679624156732
-0.35190397733263357
-0.6630652373649082
-0.8937621159597425
-1.0702331523803088
-1.201359591708536
-1.2574691058926872
-1.1435121979582972
-0.6108747523847362
0.6428843492437089
1.5141335908726634
1.628561386606834
1.2746734820901529
0.5362934067921366
0.07953615525865368
-0.1863592045271903
-0.3069210918120027
-0.28265454819096975
-0.29392280537670556
-0.4918373443431661
-0.7471985965200894
-0.9739612688504058
-1.1904843071967417
-1.3443919713688075
-1.457708506638009
-1.1183687594435063
-0.19967826828837598
0.9026441393337958
1.5872291704404828
1.5674717699935004
1.0413149737061393
0.52677425958987
0.14924146364267085
-0.042672222144650225
-0.10076568992210891
-0.1379667562839068
-0.2692679239270109
-0.4865690477891729
-0.7205167487270501
-0.9930627809300541
-1.2705774009708781
-1.4377054453907898
-1.2990355521164108
-0.5957803220253061
0.47719483002419544
1.419120538108215
1.5381984184118727
1.0271909625571487
0.4098290502385202
-0.017854164931955463
-0.3102011302548851
-0.4081049663825148
-0.38194961586815884
-0.3917651002148643
-0.5808412151262946
-0.9351869942906893
-1.1285392167608501
-1.4011057881453335
-1.5492502832334278
-1.2649607844474873
-0.29099741860547723
0.7741146517473566
1.445860449669252
1.4885109884318857
0.9997971817437792
0.34907509335608145
-0.18209648134127843
-0.40063431964960394
-0.4155068565808952
-0.359917155601969
-0.49432746412428163
-0.7400108557478198
-0.9730941951992914
-1.1792727717436446
-1.3893806223124578
-1.3747908355216185
-0.6687570857818635
0.5672618799128392
1.4824586652844083
1.6975219676413906
1.2427589139520034
0.6369059702607951
0.09712042950987648
-0.2558511919696857
-0.4087635076637015
-0.41033881558182916
-0.47643859286241264
-0.6869383912319246
-1.0342051308266798
-1.1489323119177461
-1.3315981780660389
-1.3168284186943402
-0.7830226542798773
0.5278700745398207
1.720118133751254
1.8869638266261206
1.4294182393182169
0.9061273750208559
0.3069730976499786
-0.12519630264086107
-0.2662704376189511
-0.26774207
-0.32111055230359165
-0.48486514868983566
-0.6856126235390344
-0.952172163614897
-1.2288110767590024
-1.3291848188458302
-0.6413576320612945
0.6156306613233544
1.6595175230796384
1.8954105257934644
1.436315257477471
0.8089794300436999
0.21226987284340995
-0.09530592312565585
-0.20358765384423363
-0.21219111745167613
-0.3078394634015118
-0.5453960672010058
-0.7510545140534504
-1.0122643723112028
-1.1663223461778105
-0.9949742188239208
-0.12163843151488107
1.012246078909475
1.8227485685333185
1.756648807627355
1.1374986186236604
0.5814732746765715
0.11061771444890131
-0.11879363277293961
-0.1480440660525468
-0.13122384164255974
-0.2315832427451659
-0.4883638737680287
-0.7351961491963587
-0.9712376238159102
-1.0764208192809495
-0.551660182111035
0.43075677370757115
1.6698049979246294
2.019849908594918
1.635787036643037
0.893711188330905
0.33733428302982715
0.009931126976556515
-0.038907221342849865
0.017747296443185415
0.024282621770414573
-0.17599051094547422
-0.45356910277400553
-0.6422581627840072
-0.80999817384231
-0.6870738042851664
0.13613066212998073
1.2835268879232407
2.1227628981069935
2.1512071580566583
1.5882198940680965
0.9491654058902992
0.4062954157225477
0.10871725836630788
0.0551956159999999
0.029052601551910258
-0.09454165790918814
-0.30157353338898474
-0.5466581945503777
-0.842721103688958
-0.9647969393675834
-0.8973888041212597
0.16339954741671908
1.2073322345676276
1.9910448018500349
1.9870467839910122
1.4518970122159283
0.8651954551521366
0.2737210893749632
-0.03865252880130533
-0.12017283548410918
-0.1240245675735821
-0.2515191822323539
-0.46182775572969725
-0.6952261233768271
-0.9222486897007829
-1.173986305924339
-1.2514963821961151
-0.7122768737943879
0.36943942744118863
1.4683045272272566
1.8065705652680975
1.4560907032492678
0.8222744534798574
0.2103156524277356
-0.22134417296154768
-0.3471662169860982
-0.33473942206845664
-0.33508378773214026
-0.5034236427389167
-0.8464093347919939
-0.9762947549102287
-1.2406939131564836
-1.3895007984335688
-1.2370409409500418
-0.3379313767530604
0.8166885870613838
1.7343109151242695
1.673705797241384
1.1265818103561207
0.42703787995137255
-0.05631823273091277
-0.26557715173451113
-0.2835026405563973
-0.29275288701632757
-0.4024688487757546
-0.641132433149619
-0.9234335722788027
-1.140003916528831
-1.3343089912134802
-1.23552639411423
-0.41026601950661024
0.7586888375046559
1.4991377122009375
1.585013945420639
1.170453359131559
0.5409625908516571
0.05164061216507532
-0.3330244320378352
-0.36287455407030345
-0.31149299043643136
-0.3907404175845004
-0.5519257823640276
-0.8534379748453493
-0.9730684339970627
-1.1400389181891275
-1.12175269021459
-0.4565495851045659
0.9700857228103944
2.023104437068778
2.2079571345588596
1.7865925694107843
1.1646593988869307
0.6367414873735598
0.09413987826408862
0.036066500911946964
0.002203175786392557
-0.11959422431198685
-0.422089042226658
-0.6678238813493396
-0.9396405869386059
-1.0615516340467825
-1.2668774170874406
-1.0862046733388484
-0.0008246126146844654
1.276494206861157
2.0865626226998923
1.9213760638919173
1.457760468211348
0.9143873654626987
0.359297738846901
0.014982644482210558
-0.08451944193400272
-0.1273103530341771
-0.23129029731882872
-0.45494898294142416
-0.668864110821685
-0.9588972687399976
-1.1765621099849726
-1.307669568062213
-1.1700340174414208
-0.3690185828217578
0.9624349781772997
1.9983617460119778
1.9706329025571518
1.4311668452415944
0.7844464194236298
0.2943655561013108
-0.03490184901248756
-0.13818656984123678
-0.12552042740578287
-0.21987341145543227
-0.4183467996754859
-0.7075863914668675
-0.9612013622355186
-1.1952654398741644
-1.3301849689034433
-1.1989865882987583
-0.4139012088839466
0.8457188371455399
1.868726122655142
1.920471852522668
1.3304672460745754
0.5961104964372291
0.08734691367014918
-0.09069193361415528
-0.14267583903087028
-0.1373929327188032
-0.2801303504080035
-0.5524501204478632
-0.8475187710933203
-1.059523022978077
-1.2855997588985444
-1.4321383993915417
-1.2091779933536932
-0.3200522646029826
1.0326891527381172
1.9007497222036533
2.0706107165228236
1.5821332634628404
0.9295109116758135
0.36872340475552823
-0.03762947858004492
-0.16009618
-0.17836993992852113
-0.28468887073640176
-0.51534694726454
-0.7873168662878446
-1.0344762731270027
-1.2257731184916132
-1.3239328555171244
-1.0491251177652268
-0.10369763796948661
1.0521907296279345
1.812443600003236
1.9323307748302017
1.4216813184108916
0.8289362338074266
0.27402908184996017
-0.030047643913320148
-0.10212490042589556
-0.11262320014281227
-0.20559619515971184
-0.4338767277017656
-0.7300668851703849
-1.0188828451547702
-1.2683354111764613
-1.3826884706300082
-1.041995092507006
0.06701509300997566
1.2737363524745333
1.8991834249302333
1.8629091309790757
1.2921764557441267
0.6899480419221354
0.1617029217064186
-0.11873817533960714
-0.16179258944546138
-0.20480990748267372
-0.4018559849785298
-0.6062789526800071
-0.8930754059199351
-1.1665331843440074
-1.3807298901482217
-1.1302771275059253
-0.36456889042066953
1.1466398403248586
1.819384794576145
1.9197585553118806
1.2117032313779226
0.5871895891178188
0.09567440646900963
-0.21000874917839207
-0.23316333461699856
-0.17321679571532883
-0.24669335879402285
-0.43453333747442435
-0.6781888315703695
-0.919765198771749
-1.0997600958584433
-0.7581572698525834
0.15126020762277015
1.3798261260268256
2.0771998890949472
1.9434936412245536
1.3491652349119785
0.7596361773384267
0.27759138969342256
0.08014019742558504
0.06478246592946885
0.06834004224354352
-0.029709198100584894
-0.2906922808688503
-0.6032354698799618
-0.8258467172387527
-0.7987277283096226
0.03642397842229628
1.2147198327389297
2.156119868108681
2.5969915467749356
2.233756306008521
1.6541174005175958
0.9994219218265075
0.5942384998854555
0.45792568206080375
0.4321878613684962
0.2919802242807781
0.05779148567234124
-0.2503535880419248
-0.5806388268323505
-0.7787607428852334
-0.5753771118161504
0.45137465432622614
1.5446763373640628
2.395223821696149
2.184897847111378
1.6938385907727733
0.9145407657906209
0.3532658402738911
0.0743278186110565
-0.05760325471216579
-0.11188498150471105
-0.24839326328329264
-0.5740844788366025
-0.789171061030243
-1.0294061416960614
-1.0042387128897883
-0.4884480494464661
0.501819580510412
1.7075520891248617
1.9799807304067027
1.6084030425845282
0.9640957296651814
0.31648886670101234
-0.16416260682224965
-0.293214552941484
-0.2879978582342215
-0.32844707097833326
-0.4745584891630047
-0.7038701665655033
-0.9609542329701355
-1.2128905526395664
-1.1671949223532114
-0.6311300464241087
0.6067674005132815
1.7786666379910903
2.053068879533397
1.5769962109450888
0.5529320012759339
0.10125017866919095
-0.2775009809894673
-0.29888104189473697
-0.27773295430330946
-0.36919414727285316
-0.577668612578625
-0.8442997699199827
-1.0737541321020903
-1.2586507319979405
-1.2113704489166757
-0.6532071427226775
0.5343763274111026
1.6213651844000194
1.7870723654045029
1.3159164371308092
0.6016347136507945
-0.042671701995936326
-0.42931029805738696
-0.44363506308556755
-0.43604404632249877
-0.48427543181938815
-0.620511275925284
-0.9063479727606596
-1.099925915916635
-1.3072202906813126
-1.2737254390959598
-0.5539869712709709
0.7702155249530138
1.7279233933831362
1.9789167855105898
1.4580095168514364
0.7464150777676606
0.17403235622987961
-0.1587804154204919
-0.25810682558220926
-0.2593447995886716
-0.3605148421325784
-0.5677958582807745
-0.7978788564959088
-1.0459255160724255
-1.2351928249935853
-1.339217517765254
-0.8846018306269152
0.28327801149047804
1.5218838407920963
2.1412070789126223
1.9758603584376087
1.3898954453786678
0.7613517182679331
0.24210737119593845
-0.014645055488613279
-0.09856576722719215
-0.1266754643269287
-0.25346293586329477
-0.5003868467974589
-0.7949335550211711
-1.0156543537245657
-1.2618044444607706
-1.3341871045062
-0.6870687353122866
0.5142763448928949
1.7055780754684648
2.0131591760725622
1.7004969652113773
1.1046916304109646
0.4487272207119788
-0.07503716933731325
-0.2514888731939112
-0.26774207
-0.3355399859672319
-0.5349777552940911
-0.8024684040033239
-1.0180397711904072
-1.2670252836337712
-1.4710261540102232
-1.5772574956164853
-1.1321026148568278
0.05334532656151625
1.4096407021244621
1.8477153087753684
1.4983825024357167
0.7362078694425815
0.1312612516164312
-0.3559214725598274
-0.5282178990264211
-0.5605921324542372
-0.5679837890476926
-0.6941213055201703
-0.867434290366874
-1.1403460036794215
-1.303392095317995
-1.5112145286534546
-1.5666331024213844
-1.137753013009022
0.14993358165234527
1.358109654101706
1.7478591927937626
1.1723663123745007
0.3201830786664998
-0.2536906321466409
-0.5648492232911844
-0.616845120192885
-0.5911647677416908
-0.6234502412980703
-0.8270512056899794
-1.0708259256792283
-1.3170560945979886
-1.5143379285021732
-1.562140005831966
-0.8236918404572401
0.37703828716557
1.3510010431855357
1.7412958678141015
1.2692295592925933
0.5049093438777011
-0.05834519721098742
-0.42310530205800556
-0.5313561442540998
-0.49464873016130184
-0.5385916542936476
-0.7221104364680768
-0.9300131286675288
-1.2105827339164816
-1.3934514611729185
-1.4440225543640341
-0.8412574679940751
0.2890360578897352
1.4391444523132775
1.7950957377106866
1.3850184449853538
0.7115554418981798
0.09879919346073382
-0.26100534668047115
-0.43997551
-0.43730666480077945
-0.46600338089612187
-0.6043119690120954
-0.8220672883487521
-1.0774460906906653
-1.2862066810754225
-1.346567001401637
-0.9559744549346665
0.3202203131605921
1.5429812700485526
2.010118991510097
1.5319468507458054
0.9129236669987512
0.19755675236932488
-0.14467302233283214
-0.30071533538168194
-0.2485145498561611
-0.28798208748374016
-0.44708385358150754
-0.7274197416263778
-0.9542586182883357
-1.1565036087045777
-1.2888690257831483
-1.0465031812125494
0.13360150939558557
1.386001372738154
2.349099026072692
1.8759085676253318
1.0422499816802298
0.4549800637134778
-0.07866536598713739
-0.24421765253252511
-0.22413928096948307
-0.2057786966751092
-0.3915180188690485
-0.630352770498269
-0.8824196251354471
-1.065297643956254
-1.257065751438647
-1.1539602020978166
-0.30222546664999284
1.1321499750552613
2.2360630814995717
2.1480771056165886
1.5227581987211305
0.7586023586031647
0.21355217751823496
-0.03990773990721303
-0.041913220197566235
0.02923715856355793
-0.0335071168220567
-0.21476582881204453
-0.48868567142518726
-0.783077082045315
-1.0317318699431601
-1.1244858197310803
-0.6409818343251048
0.4234138575112926
1.6820772943712747
2.2517033230266743
1.9390930253624568
1.1919840610605683
0.4817062914300612
0.09549869860686244
0.0046228964314003395
0.0013726673999999
-0.058975069608952754
-0.24611033549493816
-0.5327419754380495
-0.8163736465158433
-1.0412775018871308
-1.0707302917105193
-0.37756218404401687
0.9406069293066006
2.1777785919463257
2.4475267862497088
1.9191920952705286
1.1249605098764937
0.46876136766250753
0.1322211855463575
0.04022792307524948
0.08046243114441051
0.06954452210326394
-0.08310993858299315
-0.3076099496799737
-0.5859409443592747
-0.818000259851141
-0.6040642699302827
0.5817855279319557
1.8698598808668152
2.4056992073544206
2.4784801684950173
1.5003926753609569
0.7932018583529074
0.3089221201791
0.06325345027539991
0.0551956159999999
0.0551956159999999
-0.05944924377700574
-0.3316231451902708
-0.631049856370818
-0.8798407900481255
-0.9242737891577876
-0.33471013394451987
0.9814299513983336
2.382241440728192
2.703437434054983
2.219144683874619
1.45588312023153
0.7663325206587122
0.21003746506317794
0.023140243010205532
0.03324276723389932
0.012854311128624668
-0.1757413487366538
-0.43865740917207363
-0.7662550685341101
-0.97820499
-0.9317026140347837
0.03362481526037667
1.4135593210179735
2.4593685451327203
2.379730737687451
1.7939271783359831
1.101374478339476
0.3534603150526979
-0.0771963328641293
-0.24878187088601478
-0.26774207
-0.29704316544844755
-0.4704011134654802
-0.704436969488855
-0.9666134064472872
-1.1913631806168294
-1.2133839385827307
-0.5670603316925802
0.9583897965884977
2.0666823294657437
2.279475087168992
1.7549519298812624
0.9898519529914802
0.3242760931955461
-0.039310327162165704
-0.15975881582810886
-0.12755420487503957
-0.16244864082054397
-0.34888568496548905
-0.6400441231770886
-0.9261231478009487
-1.1575710966043522
-1.2584929572213168
-0.6783131917173864
0.4849416696891824
1.484606787377984
1.8974076681494052
1.4951328452627497
0.6993124735629181
0.04955589339782218
-0.35169479517447666
-0.5333682938184882
-0.4746276233612323
-0.4771147868443387
-0.5670722261740421
-0.755445665061272
-1.0884672789716667
-1.3257073947108853
-1.3055493312051507
-0.29095567733738265
0.3774012268538902
1.5989529523816355
1.6905220457704964
1.0409896773031124
0.2906483802965428
-0.377827435514432
-0.6896047202267007
-0.7102538523560804
-0.6269172607297862
-0.6506410169316716
-0.8350216554357539
-1.0610630295851609
-1.2522767923159006
-1.4121538109763094
-1.137636438005343
-0.22294518346900527
0.9199707951064751
1.5516746570066873
1.3303560107027814
0.5962020385693895
-0.08686658899753341
-0.5065015298636628
-0.7029916347596997
-0.6527322759121558
-0.61220895
-0.6805106917002806
-0.8736009620235621
-1.0720754361336906
-1.2685317892935073
-1.220811471931674
-0.6054263489726097
0.5379871964690395
1.5861338847578095
1.7018789001159826
1.1141252841500835
0.40651363995278167
-0.10291773812182739
-0.4812741961422048
-0.5545405274258506
-0.507530457577856
-0.527866783156789
-0.6317266060733582
-0.7958454197439062
-1.0400511343610699
-1.08283153655058
-0.483768067915353
0.757167223566461
1.7199915366574736
1.7796558291695412
1.2179606500168707
0.5521814409058254
0.0012447119033860976
-0.32546312108332703
-0.3639472649272373
-0.32966550419004914
-0.4130427033780805
-0.5518143139333405
-0.7484024798590312
-1.0306652059113914
-1.103964779126218
-0.5839052546706787
0.5191760174958341
1.3824922121367362
1.6028497183097605
1.2664422563431565
0.6160337991807752
-0.05791850040916868
-0.3585333450679706
-0.46672357855534
-0.42921092
-0.4923128395949302
-0.6236257729831105
-0.7918006347372971
-1.0870913055545608
-1.1568926338271797
-0.5440467686440914
0.28677530045803423
1.1679882462194122
1.6361111136040034
1.1937453796125137
0.3290358217066055
-0.210473030354218
-0.5366283615840404
-0.5208947215637932
-0.4432529883044283
-0.5071782232007539
-0.6625825965113977
-0.8682410433638647
-1.0802380329613284
-1.0309421234573637
-0.5154060504050277
0.4948249461403099
1.500995779452275
1.5537657973764452
1.0324388602979206
0.3025008765236671
-0.31510333756287456
-0.6456022403404849
-0.6186324472093051
-0.48390992989966275
-0.505943186264088
-0.6501565727625477
-0.8210283823286126
-0.9833103459016517
-0.8702306413523945
-0.24744353371233874
1.161664421877417
2.0017801249125915
2.0858139554969095
1.3821539775483727
0.6347291107708396
0.14681345611921393
-0.04428209145896413
-0.03816979482462301
-0.011837992787270097
-0.10162692033843161
-0.31071637373522076
-0.5901483386207319
-0.811022779967032
-0.709693735053154
0.11832639269434647
1.376704520192977
2.2234244929422857
2.1982953031653674
1.5188488555480373
0.7683896737444755
0.23457096540492323
0.01422308445645153
0.02455079268329935
0.0408477294120885
-0.04587264761052673
-0.25611457873911503
-0.5674678399209052
-0.7996722679691597
-0.6864828806405752
-0.00033384690839344255
1.0850305295976406
1.9500315470978065
2.045838240054649
1.4784797943447017
0.8324091774444689
0.2806173617390998
-0.029480325400094817
-0.02230545769694095
0.043840038295512765
-0.005717214038188562
-0.18472440523828657
-0.4266263278577913
-0.6481209354320667
-0.7960800027393692
-0.5476375495700749
0.36863663191687307
1.4526216450940135
2.1582478778117085
2.0168645912374656
1.3175466465031647
0.6032628088216527
0.12447337005589457
-0.026735834956998522
-0.026525957430634052
-0.013860187867768626
-0.13322927217699787
-0.32983104257891865
-0.5645417161561216
-0.8095909037450062
-0.9026130748997307
-0.36492178035191103
0.9378521365576863
2.074058349594648
2.161970953136582
1.6879660708993547
0.9033712097597751
0.32356658182712245
0.09099176605981221
0.09266188580364203
0.11829106017987756
0.0858269860798288
-0.0666413476713377
-0.29863502672079134
-0.5386973588269881
-0.61759124
-0.07471122552189802
1.0008798793094664
2.248727274853761
2.7204519531692273
2.303443980743228
1.4860374107893102
0.7721230517817371
0.33230284593668274
0.24785692963483272
0.26658624107059953
0.21957720699817093
0.05632059144887838
-0.14525465108267643
-0.4279886417718073
-0.7016425644112596
-0.4927863511696119
0.2677361263070328
1.3582366039094715
2.4490887828614443
2.45714068831843
1.702317289849712
1.1098064776365808
0.5191746332904553
0.2586824026476352
0.1999729038679117
0.18652717318397283
0.09041537719408534
-0.15683462826656025
-0.4300050532748561
-0.7186372651320392
-0.9391855948167496
-0.5758921198671498
0.4866057302343517
1.7961128691679829
2.3921934865907164
2.0170661875031475
1.2425195684202819
0.5301527721332019
0.09681101416431877
0.0023502266182770784
0.03332269426234469
0.016651544013226553
-0.15885911070130843
-0.3975364013352335
-0.7229211549672458
-0.9641346138225487
-1.1347699287478985
-1.034913265728497
0.020557499280648525
1.236181733891374
2.1197885410486084
2.071771842100662
1.3498948303100917
0.5322264767053013
-0.021662923678897897
-0.24515425149244893
-0.23246270154386997
-0.2227009871262953
-0.2915286879934723
-0.557145248115289
-0.8465595707428243
-1.0521963293356524
-1.2392913337410913
-1.0772451387747999
0.05546674939121149
1.0878823263374615
1.925821150660681
1.786014936973019
0.9371706730307183
0.2044834939584385
-0.22729324657147357
-0.4003806937710381
-0.3618513388635965
-0.3480120998224296
-0.49235130029784613
-0.7021043655858392
-0.9034343223139822
-1.1393713441735631
-1.1772695815574368
-0.814802341394693
0.651237400822796
1.6763659007605543
2.057811278409598
1.5524961929839838
0.8092333858926638
0.17639797547305525
-0.293330757830641
-0.3960159090477521
-0.37723674168153276
-0.377853881833999
-0.5489462258770437
-0.7291470910090126
-0.9873902227011965
-1.161397423233981
-0.9840065083361328
-0.08979289726461637
0.9889973006091977
1.7713477616075721
1.8554969938045682
1.3031539316060554
0.621563515992296
0.07274701740437589
-0.20593935944767383
-0.3459592865166041
-0.36903472909024515
-0.45851726826752437
-0.6480353289140774
-0.8983013228678026
-1.1260089705888603
-1.276727413466317
-1.0213434792956786
-0.12098886645040274
1.1304338874107258
1.7845823650588177
1.6306266824359166
0.9104043664126782
0.21756267479775965
-0.23999211258072112
-0.40932556237848117
-0.44427022202086613
-0.4468242630440777
-0.5273607773435158
-0.7624579177442463
-0.9772115528098935
-1.2146078281014103
-1.2931810821641676
-1.1236411071629877
-0.2055592409343956
1.0363833954217923
1.6298255051044979
1.504543827040217
0.7837111884107811
0.05038998404492212
-0.37888433084756123
-0.5856016718648481
-0.5635305902574026
-0.5516920276459267
-0.6529556415588732
-0.8178410237134874
-1.0820414329975856
-1.2439380451817996
-1.2796135
-0.772369973123757
0.24908635997576667
1.3013140414925757
1.7533961798178848
1.3819424463212804
0.7170258004934209
0.04404530399393264
-0.3633103764763943
-0.45206119510365145
-0.4355965008644924
-0.47364010317544675
-0.6113252665421192
-0.8219598549893987
-1.0478007659521233
-1.2515799750045074
-1.2108756955187032
-0.47734183056020785
0.7675817689745419
1.7674699183027032
1.9521987208311775
1.4820108282646687
0.8235200701845173
0.16821204255680955
-0.14546916384838451
-0.2492917937750551
-0.2169331035442407
-0.2620953615003497
-0.4185944940645685
-0.6344818778494887
-0.8308870871330613
-1.032969523992506
-0.87088787975168
0.004313035601237525
1.2348364613458713
1.9786490873654015
1.9510463292715126
1.2391098902659652
0.42310216045508064
-0.09310564640039865
-0.4157191813549018
-0.4277502134657844
-0.40624155844337023
-0.5162797859701579
-0.7221338182860989
-1.0241631181030162
-1.2006340920715344
-1.3955338529272083
-1.0995342906953829
-0.06498615754862608
1.065766997481362
1.7498997576941082
1.3303923386515029
0.6855076194348291
0.08418235198029718
-0.3754390481429991
-0.5341294021492669
-0.617825758149057
-0.7015221141488471
-0.785218470148601
-0.8689148261483912
-0.9770890573188658
-1.2079792811851993
-1.111951988739231
-0.282086242965498
0.7034459122326017
1.444732465904995
1.6427578967367504
1.082677796054946
0.39621621341509583
-0.187645114674298
-0.4294161395041735
-0.38540979067001035
-0.31783307537788646
-0.33688823570799686
-0.4807081092936551
-0.722755024444001
-0.9181172562461519
-0.5248976450614473
0.8339699021244907
0.8402324832928293
0.8464950644611665
0.8527576456295051
0.8590202267978422
0.6805522581333537
0.14076257144560989
-0.09364246856834893
-0.16009618
-0.11770568084744133
-0.20584938434425792
-0.41662405949856895
-0.7195238702612655
-0.9397374722706788
-1.0013333216110452
-0.43585191593983647
0.6007656888841896
1.5726282072430704
1.9956174416744097
1.6424807296993424
0.9371505193872671
0.39524692600785566
-0.016975996473098116
-0.14713858670445057
-0.1859481623105245
-0.2703301220388815
-0.49394247145649584
-0.7248461004175888
-0.9529136416253434
-1.137881300306991
-0.908368278732989
-0.1444470579644916
1.0010419572967182
1.7430852708257734
1.6877372435579137
1.1716752142712754
0.5273739727136197
0.061491666737674255
-0.17719926584004092
-0.21391913
-0.2509666046618242
-0.3783159100748295
-0.6005433673024265
-0.852142216360255
-1.0831360921554083
-1.267551201687768
-1.2895174493930217
-0.6800910829005843
0.542448801268023
1.4604400292507311
1.720692753624648
1.2762622961842618
0.5592927025344872
-0.0450701736306629
-0.38123613450564997
-0.5167653368778696
-0.45066555140993514
-0.5246582800647364
-0.7537713512091365
-0.9779939025201108
-1.1642730206709593
-1.35376013925613
-1.506015406388062
-1.2907553924762631
-0.4760805231745687
0.6121912779056284
1.2902751912056585
1.4112196858738142
0.8076597441139217
0.11219878071007205
-0.40560575706607344
-0.6414686667318239
-0.6415425650112911
-0.5608834873722073
-0.6490165292045412
-0.8569691916666646
-1.1078647223681146
-1.2301780017204247
-1.377095769928262
-1.2900112618637745
-0.561920153156132
0.31275094863883346
1.3165725173153462
1.4156517325878741
1.0586922109350598
0.27479382009621456
-0.17789238971225219
-0.43806881272349346
-0.5303703960879327
-0.5431513566255612
-0.6270978367720754
-0.7582641805363973
-0.964946331739674
-1.173100679410302
-1.3689254837276819
-1.4602820497403914
-1.0658348883164912
-0.26571279680163873
1.062942794613165
1.9099591619651823
1.6790996204366788
1.1341969684999063
0.5041344285724577
0.042415229892244666
-0.28070109636884705
-0.35348503617182664
-0.3487753540469479
-0.49786240165741247
-0.7104079789732423
-0.8944432279562831
-1.1471032913034651
-1.3297127926803578
-1.4462606047054416
-1.0279959363086069
0.13888577941826877
1.259532848849978
1.766143014047302
1.3594570050401629
0.9286220326858509
0.3071330193283417
-0.06843484896092282
-0.32209903327586864
-0.3326126687324571
-0.3612090051623587
-0.497833372855576
-0.7142464364588866
-0.9223248213355368
-1.1099470831155274
-1.3146643920376517
-1.3841007572429778
-1.1943892718466407
-0.04674440103476252
0.9008846609013381
1.617854254551361
1.435317029004157
0.909011337160619
0.21489241425356995
-0.343615976085658
-0.5675298000639297
-0.6044534131166142
-0.5740244185831065
-0.617751959400629
-0.7754964585288175
-0.996858320216644
-1.313109111116794
-1.4278362922078875
-1.412543352144246
-0.9225212933117034
0.5810840441101119
1.4105419198870996
1.5693465143395962
0.971831020102277
0.38881910105066864
-0.16331843455946976
-0.4273541859260838
-0.42864097877530694
-0.3562185807180435
-0.38445651950026627
-0.504161067496107
