-0.18023131
-0.3535081684279961
-0.5256723961611822
-0.730586220856529
-0.9187133916719347
-0.9507855111301853
-0.510158946213366
0.4732721418034631
1.3827407468746578
1.853642122511798
1.7513166648035017
1.2824487259883133
0.7297689314107543
0.3918659849288206
0.24888667801878428
0.23606417391458345
0.24237897757264829
0.14348483117093896
-0.09303067717923294
-0.41095891133444573
-0.5836055457655812
-0.7772596378513891
-0.71793662935344
-0.1599486543143247
0.9771639309316322
1.7414417569852894
1.979163061121109
1.6862879934187003
1.168297647700376
0.6891529590309764
0.3717861350872026
0.26772097281708784
0.25904201
0.21186244505025445
0.12403533009757854
-0.005539064164628751
-0.18405808692153103
-0.39826269747577514
-0.5364326378162562
-0.4737067347825822
-0.015347939687376855
0.7726138423059434
1.584257603597521
1.7730898764722933
1.4376970549276438
0.9753382930503136
0.25773804850416393
0.04796275751285893
-0.06247885077706357
-0.1498751102412308
-0.1948171879429466
-0.3455030491789596
-0.6110838398096542
-0.9111377948289264
-1.2157715564805076
-1.536424303380598
-1.8421707370784255
-1.8243302824511216
-1.1516592413739237
-0.23266842173517788
0.8487754912090331
0.9644969125514093
0.7614938007581427
0.4002847478746004
0.14849042340775614
-0.03261705735719156
-0.059959645648580695
-0.0266646255146561
-0.008698585567540305
-0.11867069397440486
-0.24557087510269895
-0.4574130277888354
-0.6115797870433297
-0.697446015472217
-0.7603817175307225
-0.7828461482440466
-0.6591763359409148
-0.020761466061385514
0.8937465149317078
1.5434426009967714
1.7231693332069278
1.4436450647540167
1.039004549504061
0.6301144078234494
0.3194063115305227
0.2064758394086571
0.11407634625644823
0.029074565718688897
-0.030441094773942655
-0.16439052537951349
-0.26833457780386605
-0.4482107821127983
-0.5726183006317065
-0.6923551608092882
-0.7668259089325019
-0.8705245310087397
-0.8611744033273431
-0.5914140436149757
0.35056735246301274
1.1111836668019717
1.5065251213995796
1.3840202404506685
1.0413370431265656
0.7103062763144105
0.44782341985370844
0.22079787799187228
0.07535952334810438
-0.0071842452
-0.007919120953174015
-0.07840732162253725
-0.23560368474959978
-0.41132546058975067
-0.5238438226365274
-0.6787544564027612
-0.7961287291076063
-0.9241508260768028
-0.9849986644364742
-1.019308287228635
-1.0629556297863993
-1.133064630330625
-1.193533898886096
-1.2481030711129562
-1.271759
-1.2990540921323248
-1.3667393786345174
-1.4324073878129553
-1.2047965150962021
-0.37272958587510574
0.6828260363696175
1.4234598338602928
1.3920635245277944
1.0659454953687444
0.5643982931711027
0.24843218234936768
-0.011564756022540923
-0.17610769074520732
-0.2760753296165261
-0.33762138286208093
-0.4099749737006645
-0.5643611708538105
-0.6671578268214029
-0.8307238586015167
-0.9431060221782261
-1.0230362193124691
-1.0908651008861399
-1.1352980736313232
-1.1588490598171854
-1.204887269147706
-1.2677334853440665
-1.3374979457052052
-1.3905191037148867
-1.4294432283017213
-1.4430492621630566
-1.1206711057202892
-0.25668888295055514
0.6214448063600079
1.1070454013872917
1.0590355037583403
0.6993370337853143
0.3220559931078128
0.09811681058505506
-0.0071842452
-0.0071842452
-0.018808371433077283
-0.10418160212944248
-0.21471755108026075
-0.42850462814008206
-0.6912631317956812
-0.8038562815988904
-0.888142311942779
-0.93897615
-0.9904805096269044
-1.0609686466346442
-1.1243828873685904
-1.1386458000000002
-1.1502010199843011
-1.206989013998548
-1.2849371216026777
-1.0144734899148902
-0.19255753542594756
0.5517355882903673
1.2464438570646277
1.1975805075644848
0.7712147698464309
0.3573644119709809
0.07658637663371981
-0.0677259872339796
-0.19378800335554608
-0.20685394
-0.20831063689211235
-0.2844887593745077
-0.42671656500802857
-0.6054766078045641
-0.7539014152452077
-0.8696570670963646
-0.9420106559908633
-1.0301749341773379
-1.0720893
-1.0720893
-1.0863792607092029
-1.1306465066569589
-1.1619748164959898
-1.2006335018823115
-1.0808677761611343
-0.4611165489187157
0.41804960395706126
1.1415244939304852
1.3576210150950516
1.0186625232744702
0.5214992136312036
0.10005529772815358
-0.17478599778115267
-0.3829954811390648
-0.4730802
-0.4730802
-0.5070033444131805
-0.6020994377126145
-0.7407212642398753
-0.8757850660302676
-1.0146273422571261
-1.1428266154659368
-1.276088977672986
-1.3625572359853892
-1.4001012613525894
-1.4048721000000002
-1.4048721000000002
-1.3694262480727437
-1.3987152379792995
-1.3100433548811998
-0.7901936126887154
0.14984090326105992
1.1887125701111263
1.6497490049017487
1.3001395257972557
0.7557387041473883
0.352896566598661
0.08347923608046999
-0.009531868143384163
-0.030709232141928194
-0.0071842452
-0.018835142419373174
-0.12095686449802842
-0.33337046503418616
-0.46601361307554384
-0.6200287292005722
-0.7344642676995176
-0.8772287353136321
-0.9551455020730493
-1.0165425942689295
-1.053218240971392
-1.098739452514785
-1.151156547947849
-1.1526603633639974
-0.9278420570347503
-0.0869762158366455
0.7867888612670512
1.3231465317726785
1.3433288401771242
0.9470036730001056
0.5243970900798338
0.22491958636303322
0.05667658096151999
-0.0071842452
-0.0071842452
-0.048628224987159165
-0.09174696645301024
-0.19064111285472118
-0.36756233014401757
-0.5738940300241038
-0.672788184532008
-0.7611063268833191
-0.8102649974805507
-0.8334104396220186
-0.8638842933347121
-0.9256801627100167
-0.9658128587308523
-0.8173363075752055
-0.24440765553668437
0.6638215248593238
1.4196616765974754
1.6404120740576789
1.4018576779264031
0.9013851248137674
0.487529802936621
0.2671723542432451
0.14074602257182237
0.07495928445876571
0.0539917824932927
0.01884263512129731
-0.10370905439516562
-0.26556526860134677
-0.4672271146905382
-0.6110897858989855
-0.7267090706794521
-0.8273820112123926
-0.9132320178143841
-1.0127541105290783
-1.0886908895468914
-1.1386458000000002
-0.9783300963415559
-0.41688447817764723
0.5016333987146763
1.5149036703674592
1.7909558783622834
1.5236955696845325
1.123883104206069
0.7908587444551662
0.5702739707275313
0.4687896623439054
0.4434059950857192
0.498673967900345
0.45347832430205304
0.34399307844263893
0.2105325279216555
0.06198743460801579
-0.05871141910044418
-0.1459298828757038
-0.2738915629703146
-0.3015255576815393
-0.35913553668972475
-0.42266534073487416
-0.40735417838902344
-0.168254643740222
0.52441891229188
1.477646329194865
2.3888521000000003
2.330344109703965
1.9987362396005528
1.576274011335614
1.342631910667218
1.0736278608688876
0.9432257234018275
0.85805109
0.85805109
0.7343690706089533
0.574631384518631
0.3605411158443561
0.20103481405247717
0.10164608739687807
-0.027349371914332413
-0.12457946281916851
-0.2051160970710007
-0.284891066368195
-0.372255359768153
-0.44422742667709914
-0.26329046531687494
0.44316551383045516
1.6155727279364294
2.2450316062590496
2.417785374013729
2.144929810111473
1.851945486251537
1.5295121088028736
1.1973835762204463
0.8547463708249948
0.6676774590521515
0.5148312358442477
0.3755353364977325
0.24179759191711053
0.0701555077635724
-0.0023332166969430718
-0.1062314342350015
-0.2856672691278312
-0.3593394814734893
-0.5999278845079599
-0.73930645
-0.73930645
-0.7511078599950674
-0.793581535777181
-0.8692057313677293
-0.903652913835346
-0.5367688167255708
0.21942556729572082
1.5057960904142251
1.9553786671535014
1.9801504822181288
1.654936181864326
1.4570938693540925
1.2088449147951172
1.055998732118206
0.92460766
0.92460766
0.9149226633885773
0.8430045513368634
0.5845555030052288
0.404733245447328
0.18639613785261636
0.03486432211693119
-0.07928107127834766
-0.2434510036356194
-0.39221658337319065
-0.5050254784443325
-0.586706249154693
-0.6768443604065023
-0.7670573626605451
-0.8117821207452562
-0.4859031654238307
0.2452299260751075
1.4370890170982993
2.1060552225744344
2.3049168361713144
2.10945464589533
1.839694221333388
1.514434306863585
1.2443908746489587
1.047071766684085
0.9149135978548067
0.8219864683008451
0.6930462831405587
0.5004240752058853
0.25839726251952955
0.024411301539140243
-0.1527904643741914
-0.31464667858037254
-0.47306915388453474
-0.6361680784081608
-0.8101862379428671
-0.9839121790547801
-1.1244033826083626
-1.2594084632430875
-1.3487840377355371
-1.417498872293515
-1.4392101275979006
-1.075708773998233
0.08073169070543021
1.153022795804287
1.8843036470891543
1.9881472588880382
1.7215514160455443
1.4052934172088365
1.1229456543094047
0.9561057581241763
0.768771598962042
0.6876220863712735
0.5697354941131306
0.4223543231410122
0.22772558887216798
0.02595608515256738
-0.18252871876845891
-0.4099248756610445
-0.6167231675689334
-0.775504275565248
-0.9165580741340869
-1.0501122074879337
-1.2156685037154968
-1.2943288193128177
-1.3439318431221252
-1.4185532952607696
-1.505479037229384
-1.5774511365631207
-1.221988971552676
-0.3970822599476902
0.819596039942735
1.374547070340817
1.3843721938579459
1.1215493205931213
0.69197812504931
0.46715984303866837
0.3222458678751454
0.2073056041090908
0.2584796698437696
0.24967921351987069
0.1470557836624129
0.03674792575749576
-0.11601623076180209
-0.3723308862296951
-0.5596025190110245
-0.8492647407452175
-1.0317544962370002
-1.2166802683483449
-1.3741665155739728
-1.5401517837936025
-1.5864238817566028
-1.6482843369363431
-1.6929872337348864
-1.4677228767393509
-0.7996782194940154
0.2552796670199898
1.049930854860448
1.2805171036476852
1.0157630584435795
0.68865559631976
0.43170888528592843
0.23245386544188262
0.12082204641501283
0.059372319
0.03155919773658743
-0.024287526226957346
-0.10143015705806416
-0.26123120665658295
-0.43117848419384497
-0.610369035931784
-0.7640738580381375
-0.8641210711688853
-0.9640116289839249
-1.0578024361717535
-1.149286805577836
-1.227940129870901
-1.297639626013085
-1.3542802223622181
-1.3408353321659467
-0.9085611422033915
-0.10116836058409162
0.9463140840207839
1.4317131239833443
1.4284426204236933
1.1064932101779468
0.7341114646949319
0.49905686714432673
0.29623661583293415
0.18309657030655183
0.12960370464439958
0.12592888
0.03977031053553459
-0.050858212648561996
-0.23713317291088806
-0.4084984332453511
-0.5636459444323033
-0.699070140136376
-0.8003794095710416
-0.9017408791533683
-0.9915521106679954
-1.080607422733496
-1.1582485538312217
-1.216021293668923
-1.287939405720633
-1.3023842665065004
-0.944025915850384
-0.18301394145506988
0.7802188879257768
1.562047246184931
1.4773852676578834
1.1617457484205032
0.6802066795596474
0.4111221403862625
0.22310005217619666
0.16160221850671086
0.16786626464635213
0.15069890970177546
0.08499916646022038
-0.02512568957923496
-0.151013858201592
-0.3979169925836738
-0.4944283593841464
-0.5849007803951697
-0.6658288915513552
-0.7658846422798324
-0.8736382665825998
-0.9087874155381336
-0.9762252547738681
-1.0055326999999998
-0.9846429994290969
-0.7130464514703643
0.010108791069061929
0.8754724515421527
1.629342258731301
1.6982741563905548
1.3459709492430263
1.0580085962853853
0.7063027869450014
0.5825772096859627
0.4295012086393346
0.39949394315719783
0.38936515315033665
0.285777177355378
0.14252286848357482
-0.019179454024267965
-0.12172631138570666
-0.2575874966359327
-0.430461302019839
-0.5406838557768898
-0.6335753599390698
-0.7240940805340124
-0.8121119267380749
-0.899546801077233
-0.9934589527648438
-1.0388110000000002
-0.9268117476252096
-0.33742349486188733
0.6061484626293059
1.546135564089824
1.7717231597306817
1.5490539046199039
1.2055859640750222
0.923590790025703
0.688432299745075
0.544918743043756
0.48088145232367047
0.45871171
0.3997958761450381
0.2728541262780474
0.10086273828545862
-0.07109749317833458
-0.2214874681913847
-0.41102943920507495
-0.544100381634665
-0.6557621442936715
-0.7780594650359525
-0.8486660031601091
-0.9115438034335973
-0.9588851602555879
-1.0104911700057095
-1.1353053286014743
-1.1421662026925905
-0.6167420601413223
0.48798382179960587
1.4268316771548761
1.8110405587037453
1.6150633071997482
1.2079889756165922
0.9018263589740536
0.653226358396249
0.5066779751859607
0.45871171
0.4559956209449978
0.4158213171075971
0.3115319605933927
0.04652975638428408
-0.034398351529423644
-0.21940558426664508
-0.3317349917747834
-0.46300130124449856
-0.5613880273967738
-0.6314780287476699
-0.695213726573891
-0.7480489562225404
-0.7796437905977388
-0.8426058584021989
-0.5246548882208473
0.33104637420830296
1.1232022912716153
1.7248169418471397
1.935382496037569
1.725192637583093
1.4028144811403398
1.1178773643114257
0.8897176259809798
0.6583814
0.6583814
0.5968930111251857
0.4846371749006557
0.30337184278944723
0.06260227815322057
-0.12160588895598584
-0.3500117037562477
-0.6051941662514164
-0.7161352200408859
-0.8420593556498439
-0.9090913406293891
-1.004959239551503
-1.0422620221815269
-0.8949828374558002
-0.23226562296425812
0.5505964590955338
1.2604098006846933
1.738244912932971
1.7106606648150202
1.397457001026951
1.144299326462416
0.9016719007513019
0.6944042932158359
0.5414416036028437
0.4540136193045399
0.4079753933662033
0.270935273053039
0.08855145510475632
-0.11340985628508932
-0.3141035761180087
-0.4939258336758843
-0.6291353387857566
-0.7455370740013226
-0.8496441280832482
-0.9375099644429723
-1.0007258822522083
-1.0546779266336088
-0.7518097417221017
-0.04717927771442054
0.8386263594519195
1.5626514396965199
1.7213401849267862
1.4634045271690737
1.146288528723671
0.8477884966645525
0.5967729267515541
0.40630753576349354
0.32893236884066357
0.2551006108793061
0.15566332010784556
0.019755986481736626
-0.23964326476773185
-0.38390846721527816
-0.5985453743832595
-0.7695362490084912
-0.8822106380448909
-0.978089669369341
-1.0443391596893605
-1.1038223060898813
-1.1932879845882847
-1.17703296116523
-0.7560906416771714
-0.03805609045729996
1.0021556989788991
1.2968998357987283
1.2562219813148527
0.9921626881891119
0.6528370964483151
0.37311806812350257
0.15730977711111716
0.08787102168082445
0.10301024156842903
0.08982651580431092
0.002981311403592722
-0.1194816687876797
-0.27232789199558843
-0.4099404763615808
-0.5428937863057168
-0.7389378799249164
-0.7931953559919735
-0.8872725019779374
-0.9290998386565155
-0.9991081357344339
-1.041809256455353
-0.908745791557631
-0.07679999627899664
0.6905297413838116
1.2929066727322782
1.4641180726776355
1.2816709881944774
0.993030133371849
0.6939477252657074
0.47566062650181734
0.3350250510860691
0.26844589171191047
0.23066057244472682
0.12744953970176046
-0.008992824472036615
-0.17013393547764635
-0.3606789516859911
-0.5324621757596006
-0.6719634513791947
-0.7920023212412314
-0.8640041558929645
-0.926340275916165
-0.995303822604672
-1.0827988815533771
-1.186253812009039
-1.1929486135481708
-0.9449891090854954
-0.2590716021328795
0.7902480876014775
1.3084291728944226
1.4471296901690005
1.1938365827836357
0.9031610411513049
0.6257986497346979
0.3871122898435353
0.21306104593617398
0.12349008435057937
0.07854801151258313
-0.020223117615492267
-0.1623923474791372
-0.34198525914097777
-0.5366927723775498
-0.6693359121149967
-0.798371404164567
-0.9388232286613876
-1.0598719541715553
-1.1663621036665484
-1.2844609484341514
-1.413401083770978
-1.5476531474872912
-1.6847067038332777
-1.8008645069472256
-1.8707681
-1.4200358710771617
-0.3215941942953338
0.6807166070442361
1.424464482092213
1.3419109445679838
1.099126651630415
0.7199992645517541
0.4609909689928086
0.3028759340522288
0.27175462604741635
0.2966937272052599
0.31048767462074606
0.19077723633675037
0.0361225419224139
-0.15252900858022259
-0.336576981888473
-0.4827243900240246
-0.6445806042302145
-0.80176078435624
-0.9108674274805512
-1.007603069626958
-1.0352370726420923
-1.1198324423056822
-1.2027808139916407
-1.0582424143029203
-0.4027074070722058
0.47345565511331267
1.2579502045570454
1.5062275376399235
1.3551618004020944
0.90580000548359
0.6042718291439586
0.34770136509186406
0.20699994895621746
0.16081142397429934
0.16403445268700204
0.11756747632868815
-0.0017010817450549207
-0.15545991123302882
-0.33563067200036983
-0.4874912640622332
-0.6369407942679961
-0.7621592194274237
-0.8665257647547623
-0.9608520456606332
-1.0228204151449634
-1.0556998808739182
-1.0911906965309568
-0.9127259821321612
-0.35257274042331194
0.6329869479884797
1.406586039425368
1.6312618114804267
1.4891453072719953
1.1563325360656582
0.7970907127705941
0.5452738244955623
0.38508549251514385
0.29824709360079416
0.25904201
0.20117949458583756
0.08616613885446586
-0.06983838088533667
-0.2510620544869064
-0.4997679570644521
-0.6510698956311801
-0.7845890295938645
-0.8943834203068249
-0.9895814812959306
-1.0961619491633734
-1.132147958299253
-0.8971224080883036
-0.24426607094516076
0.6604197046790363
1.5176615180676354
1.6890565213017754
1.4597669817901648
0.9394070690281485
0.5857793012630784
0.3585421783091871
0.25904201
0.25904201
0.2370630151624345
0.15672645234691476
-0.019754158396446203
-0.1795030555082609
-0.3793730615822934
-0.6105113845114231
-0.7223181091427961
-0.8420587743019771
-0.9236793696439852
-1.0097830544610205
-0.9268810537195279
-0.35588445440119554
0.4971317648365383
1.3129338565733957
1.7682178306238145
1.5839544682508158
1.1935314994224016
0.885553055794
0.5642584693772691
0.5291093204217392
0.5736781206454784
0.6571151961119475
0.6054252014057948
0.41167917308677093
0.19191725249704267
0.02035678849554337
-0.13448970844359923
-0.25480049251872666
-0.464933832517824
-0.5865737010922777
-0.5274004518339901
-0.018306338530273858
0.817533338530609
2.0252072689192078
2.3624077793561744
2.3216286162378372
2.029370167290198
1.6757480050887599
1.4454463503461537
1.2388929095485843
1.1157908954285825
1.020897525805629
0.8600081989741108
0.5815726607366104
0.2874224304439792
-0.003450229861420212
-0.23602184960502617
-0.4158441071629174
-0.5655594143477292
-0.6973646717226645
-0.5987483242905045
-0.1148550094414324
0.7592219124161841
1.8277177101603084
2.1927266169638595
2.1098943129257672
1.7900480920451671
1.34241597703477
0.9274529137682666
0.7215162276609858
0.6275525440365012
0.5673867805471252
0.45702057335349144
0.2067528763873639
-0.06038078657536282
-0.3181753164194572
-0.5259832772013385
-0.7425618343183171
-0.8980471044097891
-1.0174465342281065
-1.1141883739768683
-1.2043324872500818
-1.1833026496469992
-0.6414575119958797
0.3741680602598507
1.4305992221139205
2.0332100582747348
2.025272063014698
1.6160917632764011
1.137899240635474
0.8131944483245814
0.6243621997684132
0.4742175060551572
0.4430869871406663
0.3137189153223897
0.13394893159349533
-0.09417925866596275
-0.34536266426413925
-0.5880887939074492
-0.7903413915995279
-0.9387659578529921
-1.078074787586988
-1.2085712803935955
-1.3089961290132808
-1.4072062136450703
-1.440081206397484
-1.2288781599592002
-0.4095436577582335
0.6580161957422412
1.5172278335167797
1.74237353520567
1.406712195313572
0.8891950660103307
0.4063797245177211
0.16056068055675238
0.06992607380181456
0.03672222478561997
-0.006049598269033764
-0.12019039070360645
-0.3392767589888636
-0.5651053293618353
-0.7803714254652523
-0.9732062584078964
-1.104058571926204
-1.21497270118123
-1.3148759409564477
-1.387272189094887
-1.4348718979360455
-1.4333419384725359
-1.0651182170542863
-0.14874917561467127
0.9300769472184407
1.5910537363282016
1.6929625419239953
1.1890784651817257
0.6603481673327948
0.28506740947595566
0.19914447015803008
0.2995940336343342
0.3595913520293278
0.27326803076066375
0.11285375403495218
-0.1049271189342165
-0.3427298085019142
-0.5615114789765704
-0.7323776922871817
-0.9118367752920381
-1.0525384096758812
-1.134599695861245
-1.025536865942291
-0.5092807352185927
0.5158086430370293
1.4916789049570882
1.886501378351073
1.7632109170416035
1.3227055113804778
0.7831848162742509
0.3925855801962603
0.23091493556138565
0.19248545
0.19248545
0.0962538519211136
-0.08643195338593543
-0.3266990920818251
-0.5798936135006867
-0.7604829243211928
-0.9842663938082385
-1.1165255104704426
-1.2043720367715534
-0.8085365311840016
0.0903995412973973
0.9715987204888773
1.7900656037961562
1.757200835085046
1.4898600110819509
0.8770606751016216
0.519515757926821
0.26296071071484695
0.1322151415385789
0.12592888
0.07618543429521929
-0.07531087498906323
-0.2685521401460123
-0.5575014779776083
-0.7307744969131273
-0.91034172761226
-1.0845457105580745
-1.16358714032199
-1.0004386804994816
-0.21745727269905823
0.8567262062261316
1.5828300971735285
1.8636708995530036
1.5182468076959945
1.019977397539703
0.5691191467107826
0.27346041859822245
0.12243645264552976
0.08297512075341582
0.0361389580246273
-0.05978833100915948
-0.2308725040956935
-0.4711087762104469
-0.7121126804523233
-0.8614120458796669
-1.0060798735473118
-1.0866901249715066
-0.9495107081560701
-0.40508041061263605
0.46710878957804425
1.3064396187077016
1.7067687839588672
1.4535757351494099
0.9410310581808966
0.5386197725241906
0.2875569431098421
0.1264073825119975
0.12592888
0.06728962724935378
-0.028459814682210025
-0.1927761725311639
-0.443814869585289
-0.5747521077346004
-0.7366696368696716
-0.888348346286721
-0.9966216346806961
-1.0000871388196448
-0.5018268183085635
0.3232554243586898
1.1715480065581985
1.7483592030419135
1.630329408816913
1.2817160069133449
0.791457518219084
0.4657986721663878
0.23739542068630964
0.12211893341805863
0.09514289987868282
-0.02176612862809713
-0.1230723313669447
-0.4064875078438888
-0.6007795591955135
-0.840268787072322
-0.966768097735343
-1.0567062242083818
-1.1534603210918182
-1.1829333215478919
-0.9369905394554191
-0.3238348545858246
0.7648386500521325
1.4779675901949096
1.6436047820698447
1.3685718016068968
0.9058642246484043
0.5209162014158907
0.17515154695649005
0.02211942472909256
-0.0071842452
-0.07039432461221257
-0.2585622287682078
-0.5649597964184379
-0.8791033297622313
-1.1954157829003793
-1.4397275592731815
-1.594672554418047
-1.7129770254849304
-1.7009924433296455
-1.638446927343526
-1.5578001898587286
-1.5379851999999998
-1.5379851999999998
-1.5605032424794805
-1.5867422580528971
-1.2314682258023972
-0.391104185491815
1.0557423777134731
1.851826848600644
2.07511327267029
1.699455477219752
1.233669325721546
0.855612483644172
0.5875796381141646
0.47129050804784633
0.45582345535429725
0.3458488287238448
0.19642145300200464
0.0013635121541078696
-0.21266435449529336
-0.4624392719098035
-0.5874779417793862
-0.7159254173182243
-0.8526138265089066
-0.9481631283395918
-1.033994228760819
-1.1403076704870525
-1.2209279484535966
-1.2505700067571242
-1.1322794585958653
-0.5416606627097345
0.36659763216140645
1.3792274484292668
1.7399487640837819
1.594117803391904
1.2230625630229772
0.8461193788470676
0.5861079068181451
0.3817607507573182
0.3081061891974123
0.2742439101676903
0.20371120851006816
0.033604380828464286
-0.14449009511696553
-0.3553219093646841
-0.5709583056843035
-0.7336882265467614
-0.8595460762525816
-0.9693657110832076
-1.0824907291849142
-1.1745302703447391
-1.2443639045298591
-1.30446412980101
-1.3676878904785068
-1.2299614792487839
-0.5406294322176515
0.38948225107335366
1.1917499525334414
1.9635398242789868
1.8035742969120983
1.4397224796644752
1.0345412503473552
0.6954870949730381
0.467588049118739
0.4030903211238941
0.36296530654487125
0.29551216851463685
0.16669179144363405
-0.033032677010112595
-0.290968322146
-0.5111595076944306
-0.681621649207093
-0.823256389193738
-0.9581365672304217
-1.0930167389804233
-1.183366638025212
-1.239233134194444
-1.3040506291749827
-1.3869526117028712
-1.4137453049432367
-1.0091047734809049
-0.010005485849678197
1.0282467405450644
1.9117978759203555
1.7310986311799792
1.2334551251701054
0.7401802046914457
0.3683806561080057
0.19248545
0.1929973430952708
0.23903556903360582
0.22086748286589133
0.06443004139014406
-0.06451014792209071
-0.27409966341982567
-0.46490531130827123
-0.6255190388090073
-0.7559133434665767
-0.8636089225040431
-0.9625570237629941
-1.0069350226347746
-1.0608871237595414
-0.9251103015556283
-0.4761205724909956
0.35430834764359476
1.7201738606491865
2.240710784045379
2.0788546427949584
1.6174853912426324
1.221866637035305
0.9086022022911368
0.6625773998989459
0.5460673337456533
0.52526827
0.5002117335158525
0.35706513867970197
0.13218246185219099
-0.16717245370673509
-0.37534527638160714
-0.5411492114332809
-0.6798809465761829
-0.8168725804917323
-0.9228054616001625
-0.9056246597537959
-0.6019556027281198
0.30621963091684545
1.4152071305579872
2.102987515579915
2.3249877204670244
1.9885278153495876
1.3919872941672264
1.134878728125555
0.7990082858088263
0.6498177311082267
0.5958656624082354
0.5240018309958695
0.3299484212938518
0.15370764507318802
-0.050452706935987995
-0.2831983699800186
-0.5321493980499511
-0.7235423188449871
-0.9001064452533798
-0.9667929493240435
-0.8709418949739192
-0.2793717769697085
0.8978335773234634
1.8140906632908482
2.433132377498295
2.257788170435683
1.8797760169771598
1.2748885432014785
1.0233118478005025
0.802135905897839
0.6779032495279761
0.6231498920907904
0.5351226366350996
0.3048209818924935
0.07784256889639052
-0.25210030742386147
-0.45467525742412424
-0.6524635583335892
-0.80084518934536
-0.9357253468384054
-1.0019503124279725
-0.8593634971891874
-0.04880335471147612
1.101002931386715
2.1036820210980225
2.2401226969561394
1.9821871222374967
1.5191901683660727
1.0822688621359222
0.7621599973546253
0.5894556011769452
0.5264935333725027
0.45474970900483597
0.29550657697054206
0.08538841376103193
-0.15155533634244456
-0.39724230444263975
-0.5680545628960851
-0.7086194748023374
-0.8455003830648341
-1.0055326999999998
-0.9282693334517118
-0.5209140241428449
0.23443341385841587
1.4573305837664
2.1508063444479433
2.0961501797765925
1.7308829267402936
1.3735683553163627
0.9983276206122023
0.7686893720587626
0.6262510844721503
0.5376605411453127
0.4388653840577739
0.24616535452337376
0.06321153333927057
-0.2146371246561831
-0.41505579303733053
-0.6038880415935314
-0.779851039087765
-0.9081293841559692
-1.0266737581898084
-1.1422615175166215
-1.2441055401819912
-1.3150792638969748
-0.9827452157795784
-0.36229636898604856
0.7165579662567523
1.8935851140225077
2.008253503214224
1.8053548219666948
1.4486540974441067
1.2058697234446516
0.8078496314031703
0.6801733457845178
0.5239262834538648
0.4232043408935806
0.31504857696986227
0.11025572756317
-0.14190157046440777
-0.37691229499311596
-0.5989915370722373
-0.774069949111968
-0.9067794877336945
-1.0486595394766822
-1.1556913711645291
-1.259158970761756
-1.3575633690690534
-1.4757834392497906
-1.5485488813103154
-1.6701292687623803
-1.726372318636647
-1.7986011079748205
-1.846705562546252
-1.6903898064594933
-1.0101213650263703
0.4378105559433987
1.2948446204914603
1.74828220631129
1.740099729900796
1.4125379787767935
1.0591069904606139
0.7827671263874487
0.5983349391780252
0.49527810544250067
0.4158846895309319
0.3091575570498844
0.17098761670940554
-0.03136939309472497
-0.22308120695372052
-0.4836092914211443
-0.6041405159734796
-0.790850901636399
-0.8779022784673693
-0.9884382324005305
-1.0738191001689794
-1.1575548867832552
-1.2194817964993434
-1.2561834762346913
-1.3014459557850384
-1.3707740731003983
-1.4352717927913075
-1.111721445824734
-0.309231283742469
0.7365400080583588
1.6342813723972642
1.9539255771642172
1.6867601227067293
1.3416986889269518
1.0398808291311663
0.7994935184033549
0.6122423974900014
0.5458899401075258
0.47130708661837334
0.35989973242011114
0.16403829079229482
-0.030204099843084524
-0.2384204591652665
-0.4559067926931349
-0.5897662795179848
-0.7339961767546022
-0.8156053595796472
-0.9241540098730591
-1.0363438925076325
-1.1274008416038142
-1.2152473679049587
-1.261794831760173
-1.3168040172816398
-1.3492712708523784
-1.0435248371544956
-0.2408069841540046
0.8503261538015413
1.7414154077300712
2.079592550547576
1.891551484335475
1.5767950920642293
1.255973851128728
0.9913008547692683
0.7974905734912954
0.6708815044248255
0.6079733833713791
0.475825529543088
0.26918976152427354
0.04404908142136618
-0.25890010665139157
-0.47085514350559443
-0.6655401956838065
-0.868506045254773
-1.0528694283431206
-1.1818649507640684
-1.2453745675399155
-1.3338322713045545
-1.4261033417908715
-1.5227222237067364
-1.5300670846766582
-1.1149686531201757
0.051616254040170756
1.046439818844959
1.8999796205169042
1.8319942368699513
1.5281747256645646
1.0928962535186972
0.8117822419937859
0.6361918438536196
0.5433797146354981
0.52526827
0.48226792806115204
0.34014270746751274
0.10990451262556925
-0.11773988457246493
-0.41165501799033627
-0.7496170401636111
-0.9535944102267184
-1.177214815294678
-1.3164578443892234
-1.4045795717307794
-1.4714287
-1.4714287
-1.2358420899392746
-0.5397007884059967
0.9035794033487301
1.6409319284536672
1.8729186446319521
1.7819853645785622
1.4183776648770516
0.9834587861563937
0.5734599338848578
0.35615169725482854
0.329175662904848
0.2883104195062923
0.16552195464321992
-0.049467189530367606
-0.2557691666025378
-0.5517326846917323
-0.8026014895083434
-0.9718325813592191
-1.1131260351114585
-1.253590052815733
-1.1680830668681934
-0.658894183592549
0.2713879040393942
1.1361668694555656
1.7141894683405288
1.7411223520903047
1.4525386820015789
1.0871571907578892
0.7817004185141013
0.6021426455467036
0.4866477237493698
0.45871171
0.4282086570315228
0.31251940450573934
0.14086481378774196
-0.030780376034339516
-0.21995712925963515
-0.48553964251752996
-0.5665526937764753
-0.28750310488154096
0.4036656244237826
1.466926873379129
1.9496113115245257
2.0539977931238154
1.7362068830083675
1.305783490546942
0.9123026280056151
0.622159478560591
0.4564473620782935
0.3934852942738132
0.32003934744058893
0.17107853956681202
-0.028975633400358358
-0.24825503782275737
-0.45134929036842847
-0.6079234702399312
-0.7065576908858103
-0.47683112555380797
0.130749130251916
1.0409006018778506
1.7961927607455457
1.8705072841036348
1.613689880271517
1.2092136015610415
0.7966679951610477
0.4467033773684619
0.24403570072921443
0.13779788178934751
0.014355704433639621
-0.17137449265003135
-0.4269519708496201
-0.7032918515305677
-0.930641360976136
-1.1039516993302274
-1.2747903265276241
-1.4353066145779552
-1.5357478707037038
-1.6555135964249232
-1.7832598896093665
-1.7066813967181869
-1.286208540237898
-0.5099304359164333
0.3999148636418022
0.7760935055243381
0.6032607738575751
0.2616963315769966
-0.026084021480577257
-0.3919479634244228
-0.5404207364369945
-0.6487321723311754
-0.7002318742720848
-0.8114654558978808
-0.9844919988888137
-1.1670385623848378
-1.44405672776724
-1.5922438079651204
-1.726000253283729
-1.82489441589787
-1.9497918078555283
-2.057405737797828
-2.132128408576667
-2.2444883348181097
-2.2869739577211323
-2.3269993948260903
-2.359153034252214
-2.3913341257873313
-2.208910663196349
-1.552609348698586
-0.7265423508022874
-0.08920994178462058
0.09995838702656203
-0.11646033876214222
-0.4375981841326768
-0.7376353437875989
-0.9268758271406731
-1.038445864112817
-1.0521624920178632
-1.0388110000000002
-1.075819182978689
-1.1723269822642497
-1.3296777250079173
-1.477582247376909
-1.5762826479171674
-1.6769617877418583
-1.7564237289157527
-1.7921515200968305
-1.850617053162028
-1.8985407581990819
-1.926958724164961
-1.9890006991517988
-2.0038812
-2.048368359506613
-2.126818541527585
-2.025536955398361
-1.4104081632621133
-0.6190931031581757
0.2610793806956087
0.31503145750178707
-0.019192218855660755
-0.3159286168089854
-0.7305842907629746
-0.8834305139708967
-0.9698837722749695
-0.9495504018482255
-0.9429729235873229
-0.9891852140486708
-1.0934745624566786
-1.318609841604603
-1.466727233026805
-1.5678908619033334
-1.6783466668674765
-1.707235889486984
-1.7376549
-1.7511478924353503
-1.8042115
-1.8042115
-1.8042115
-1.831254029365274
-1.890563817664516
-1.9159541642647826
-1.6593726125446586
-0.9327346292776214
-0.0019421667049253077
0.5462313913893545
0.477018459939472
0.05805551420026486
-0.3634732695066175
-0.660671864865516
-0.722066125605364
-0.6294616122138672
-0.5205547685230262
-0.5235920474666372
-0.6398949625375145
-0.8141123473717523
-1.0495438504852816
-1.1599829589075341
-1.2542142483949659
-1.320148665222309
-1.3379906554375127
-1.3861860701790096
-1.401401795391599
-1.4048721000000002
-1.413198590945307
-1.3703685126691711
-1.1420307907321519
-0.37636463892537153
0.4111026773407357
0.7995793426360622
0.6683989878585933
0.1892709654492477
-0.2333356174710747
-0.4960273046373587
-0.5955673564906695
-0.5685526950464097
-0.49157305989055994
-0.4736070246450429
-0.5267275297644438
-0.7019978301830345
-0.9009044205905496
-1.0631478182844305
-1.1643084931346035
-1.2011722098103796
-1.245231092148158
-1.2665640409562622
-1.271759
-1.269784236915662
-1.2607741972801922
-0.8975513982616382
-0.1706093938023594
0.5970952191800593
1.0533830890628204
0.9496101597443714
0.3692963704555071
-0.07519719291356758
-0.3533109041196465
-0.47109351875065797
-0.44794807660918734
-0.33996707
-0.33996707
-0.43389563837816714
-0.6091048213229064
-0.8243782338777544
-0.9841000902782561
-1.0735620736201925
-1.1327469050618688
-1.1386458000000002
-1.1982114135141595
-1.2052024
-1.1901566150635754
-0.853320708290098
-0.016944979201857446
0.8086779059061642
1.2649617824369455
1.0667283823605098
0.5510544430048689
-0.003471679606905285
-0.32104456366163137
-0.40007998989048255
-0.3509103422350621
-0.2862778481247571
-0.2881071581220894
-0.35487688831428493
-0.5166974898606269
-0.7171432030363398
-0.8844991254549298
-0.958019590509183
-1.0055326999999998
-1.0055326999999998
-1.004384646039601
-0.9955841976333863
-0.7161408916400123
-0.08033657623375767
0.8694808677855903
1.4320800191406027
1.3991993234210298
0.9221086701780152
0.49478111320712537
0.14494845051217736
0.06204648215593775
0.1036220310433158
0.16150707652892307
0.19248545
0.12077995740505207
0.013593661469182616
-0.12919704037784038
-0.29007636479143356
-0.3917361726822861
-0.4616678663984207
-0.5027068519865088
-0.5390121285727668
-0.39332966425332483
0.1177434074601276
0.8910384573580746
1.5709147252799291
1.7349484034828437
1.4259064696853632
1.0788732198709092
0.7391894856227273
0.6006317549937246
0.5081715821080275
0.52526827
0.52526827
0.5022851897057341
0.3745739759986496
0.2756798295969439
0.11361256163957584
0.01593616671990057
-0.05682212527258625
-0.11788781126674892
-0.15079601602301546
-0.14178601691853804
0.19748779196412705
0.9318800379461001
1.769368694004454
2.310252181932505
2.2203140716718246
1.9254633990089198
1.48930704671505
1.2708083575816198
1.0999960829157707
0.99116422
0.99116422
0.925834133088942
0.7842038906059876
0.6299079699935215
0.4714888172376599
0.30784668873282917
0.2089525342248867
0.0739625292471287
0.0020510073614598175
-0.03392115840909254
-0.0658125464124272
0.10441033263283549
0.7680884950806326
1.584365829145305
2.2944542002353354
2.416210748581058
2.129079322489974
1.737963180078904
1.435258674624119
1.2081021470746927
1.0854116893560535
1.047108551795343
0.9994458845720847
0.8915417147472663
0.7012089742674685
0.4951414710586856
0.2929316220603069
0.09739045347992278
-0.0464457730553319
-0.19943923024320556
-0.3001810730138147
-0.3821978451651865
-0.4743295595673385
-0.5469187504131722
-0.6227474916881761
-0.6865737363585862
-0.6862077142370214
-0.28427431675338016
0.46102462809155087
1.6752244049710852
2.4527371902162387
2.3268670581017554
1.8761453652273399
1.5668854903615181
1.2135825224107768
1.0629105089136952
0.9980220383279076
0.9760383003913032
0.9038395714142847
0.7568080612423722
0.5352061906955212
0.3263791295171803
0.10284124016758542
-0.04329917099797927
-0.14777721893485035
-0.24950309635554552
-0.33386272960481145
-0.45077687421547286
-0.5401672258718329
-0.6224801322555477
-0.6879139298019713
-0.7718058006127374
-0.5349187568432844
-0.04578538060476339
1.0332560501386834
1.8513165737424027
2.2545732334216915
2.0303321840903052
1.6256916688402838
1.2739487183449527
1.074410655618975
0.8816617408561135
0.8122802149733426
0.7746638895060406
0.6971073869748274
0.5111007472312179
0.3109307936773295
0.0681759512921465
-0.03172077257334238
-0.19795085860811862
-0.3249199843560546
-0.4426288003147092
-0.6016470812632962
-0.7029851726685509
-0.8094363092574766
-0.9106203310674333
-0.9970346140532328
-1.0362804480346872
-0.8537479335418898
0.0470150011494076
1.0402506622899077
1.8436496940394167
1.8487753483796332
1.537503665263075
1.1227061318703078
0.8261962344961278
0.5397398008934956
0.45871171
0.45871171
0.4297217381909426
0.33057649020977015
0.15281786585555537
-0.053980428484271065
-0.2780453701469957
-0.47343878196167966
-0.631980702687062
-0.7656688346544207
-0.8963911080572838
-0.9712039185842567
-1.0225597438312997
-1.067509646577975
-1.1125056953493107
-0.793172696356113
0.2538234205174612
1.2804921236418958
1.8615365148675282
1.7856151709173091
1.4518826467829882
0.9216296844776898
0.5538789159614335
0.4369647794570003
0.39215514
0.39215514
0.37073235304042246
0.22600077039875788
0.036312655041049496
-0.19217858468337712
-0.4182650743514694
-0.5646883682594358
-0.7177570098734636
-0.8475204158671801
-0.9469450011186016
-1.0236996739836228
-1.096900981585296
-1.1149209797942432
-0.6565322562979607
0.20597872399214046
1.174652524767749
1.8809000349596765
1.9654625694244663
1.6213850303846777
1.094431569405354
0.8289536409805809
0.5624630231344279
0.45871171
0.45871171
0.40396781142838056
0.2693576514287571
0.0884579242308949
-0.10497999722823188
-0.30227118743336145
-0.5032077786328399
-0.6776894924136705
-0.7983418634902855
-0.861249984543721
-0.933214168470454
-0.9641796699328055
-0.6845859398213939
0.004076066410388324
1.0311130949986993
1.8943462590484474
2.0134967844070477
1.7511057893134188
1.4471319222252124
1.0666242681145717
0.7898180409039969
0.624784054565261
0.550964760606346
0.5163114637943592
0.34888221159042815
0.16915355586485553
-0.05645271640186534
-0.33596534985189125
-0.49047509609657214
-0.6233178159874204
-0.7598380631266252
-0.8945613377309459
-1.0233164252282674
-1.0628377586998112
-0.9246727828770422
-0.28442354107291534
0.9647568257451591
1.77152491310778
2.068261307170232
1.7491552185320396
1.3249917948806222
0.910415191325991
0.6829711018133405
0.5688231184528687
0.52526827
0.517777986694024
0.46267111274976513
0.20726166579754238
0.0649504884006674
-0.11827738915586494
-0.27789322938580663
-0.4106365574822459
-0.5133703796806465
-0.6045604522288927
-0.7117490125313306
-0.6218109103768297
0.21327880021751314
1.2517096586310605
1.9839454006444905
2.360223349692645
2.1326304708225576
1.7094739994309358
1.350063328294005
0.9183082975206063
0.6803778410867107
0.6179912913028471
0.5831913155322769
0.4622310343234339
0.29272415299846755
0.004887572769756217
-0.1885503461980803
-0.43051269118843016
-0.6122330820570889
-0.7246152537399909
-0.8743356419640619
-0.9802843578737235
-0.8161976052884281
-0.29258214854510545
0.9298263651085257
1.9190113394699502
2.408466545069629
2.2904243109304665
1.9100680088075828
1.4807998343463609
1.089249842431494
0.8358795564590866
0.7092950451375762
0.6014912559251389
0.4755018176880905
0.28298780835181736
0.03219359890768919
