-0.70608345
-0.4070176932189245
0.22130533290886312
0.8926753375543851
1.3189971686660162
1.3292659923602737
1.0959037308323285
0.7931556886366528
0.4802858281098689
0.22919624872119948
0.06299901996782545
-0.03681791302030657
-0.19327060125093823
-0.3599354845675646
-0.5571393164742009
-0.7142533650495173
-0.5964226850845648
-0.0017977706677076433
0.5883270055197015
1.0142530998668877
1.0256855518170185
0.757107153382602
0.513490216709152
0.1606780613512335
-0.05706894282971702
-0.24687382429504795
-0.36978917649662096
-0.4904140502930422
-0.6465371998476889
-0.8352825940900924
-0.9676253611015432
-0.9382834995159306
-0.4989270346266951
0.08024200312938559
0.5939601081978053
0.6626547600912316
0.3785922741727973
0.09727956462458359
-0.22082964474682176
-0.4567321838085522
-0.5969661756736232
-0.6793063223812883
-0.7606878271750251
-0.8611825656128254
-1.0105289826331105
-1.1699415613723958
-1.2636180559078936
-1.0850557406083916
-0.6414445604531505
-0.15055005003611627
0.18004865969720338
0.09449549005156152
-0.34269885455451365
-0.9630494698103531
-1.4463609737476146
-1.771873888774412
-1.8361142
-1.8361142
-1.8361142
-1.8361142
-1.8361142
-1.8361142
-1.8361142
-1.2843796061175698
-0.4062513824019468
0.22222369505595918
0.1270698832534846
-0.4069657956638494
-1.0032165223451732
-1.4028680394015465
-1.7069306524939307
-1.794854275660898
-1.8449550159271293
-1.8483175
-1.8483175
-1.8483175
-1.8483175
-1.8321450062239402
-1.370248787751887
-0.13125457907875554
0.3192667200736458
0.030066221765685488
-0.5969292183179622
-1.1768776283105218
-1.575591036117321
-1.8092668
-1.8092668
-1.8092668
-1.8092668
-1.8092668
-1.8092668
-1.8092668
-1.6685707104238585
-1.0051933457480686
-0.0007115341232871442
0.25567922800914344
-0.1384425026452521
-0.7308321100361184
-1.2416519802555461
-1.5357102611097135
-1.6320490781543149
-1.6198610937078715
-1.6149431775205276
-1.680555122788376
-1.7506906999999998
-1.7506906999999998
-1.7506906999999998
-1.3553287717299067
-0.36071563678224305
0.5580847336188075
0.7272122356342122
0.3530222715687331
-0.19771017913168065
-0.6420153833352962
-0.8862973120030799
-0.9473472115650328
-0.9323129937389112
-0.9364503671118748
-1.0495356053951754
-1.210882305896614
-1.3945495264419487
-1.2953211970199685
-0.592907605047341
0.3994476331947806
0.9055955258913047
0.8064669562132865
0.2556079497273325
-0.44684744343869737
-0.9272859142022729
-1.2022507383046979
-1.2367389699378273
-1.2185749948218512
-1.292761049568764
-1.5158965368271449
-1.7396467561235753
-1.8092668
-1.4274953209894543
-0.6017059282313055
0.5269151717456869
0.6959817636591841
0.36406555186646633
-0.2541939853685411
-0.7210806292088265
-1.0789394102991805
-1.2900010597274352
-1.364136811975518
-1.3853596059776139
-1.4973369697879042
-1.7568792650441827
-1.8373489592377898
-1.7974327269520114
-1.0804597531826488
-0.26168021087613935
0.7564030839093022
0.7897288565139104
0.34832895023907523
-0.20680825842035144
-0.636015583064571
-0.9740708378635797
-1.095239893734405
-1.1209582775004052
-1.1463063465394503
-1.3565194587449378
-1.548173287153992
-1.6765497106498164
-1.4006793993535245
-0.6571313962077217
0.28688569784949147
0.9755798203586922
0.7840756780119038
0.09928673426077173
-0.3818750269634547
-0.76631307284977
-0.9008558673272347
-0.9771555336881937
-1.0196887865133295
-1.1432065898108579
-1.3590898688435402
-1.558214771643779
-1.5819092717693743
-1.065651115352767
-0.17346099821330718
0.6315665760084379
0.8858247053048974
0.49588195471357727
-0.024329152606821808
-0.5678290486346308
-0.9016826351633853
-1.0060723157012543
-0.9803198704334681
-0.9563682188720216
-0.9898838611754548
-1.128982413414973
-1.2336403982176587
-1.039511851628484
-0.2771955416110917
0.78492856744948
1.3556854859299867
1.0893763459201242
0.43115325453326
-0.18618116817751482
-0.5568329318254832
-0.7832480868477067
-0.8629388110722777
-0.8800105269854213
-1.0062853960045999
-1.2008384808415422
-1.3765001673668562
-1.317578242556795
-0.6422290612470235
0.28831792145921464
1.0522730300519332
1.0859279771971568
0.6610351027278052
0.15857607051652123
-0.30005055406126296
-0.6060330912341949
-0.7578782879582293
-0.8138522349436288
-0.8721294133438745
-1.0564997727319645
-1.2987638082673085
-1.4526874294587724
-1.1053969924411566
-0.23780207061588465
0.7645356703521475
1.2051559267537084
0.8845415010779225
0.33204741745243216
-0.14490052669090656
-0.5019082899893215
-0.7101782326952636
-0.72560882
-0.7443377743275624
-0.8674943333801362
-1.0574896216727974
-1.2195812569019737
-1.1030759143347684
-0.4511783060251228
0.5753919260523508
1.3272342224963092
1.4183276227728523
0.9850820279196031
0.46796097025876393
0.046820467415224803
-0.283105435962675
-0.4247106271084478
-0.41420094307422495
-0.4763024824709493
-0.6047195650476435
-0.846128763024607
-0.954414798373637
-0.7268514412905195
0.06524565557467066
1.2171313122220564
1.6324019801447582
1.4484510657904779
0.7912950132387893
0.26418235226188946
-0.13318217525501888
-0.3836511109093823
-0.48914637611332157
-0.5293812396952919
-0.6457745289541735
-0.8653563657016128
-1.0813792722654156
-1.2996534273984985
-0.8998603669794816
0.07027210621428875
0.9244580096876612
1.033668393527447
0.5681510799790482
-0.007756534096582668
-0.43287944642938847
-0.7743553606361527
-0.9361930131555682
-1.0114364083249194
-1.0757326714822117
-1.2187399635097544
-1.3991798091765508
-1.5298321091974192
-1.387120666673157
-0.5472807798927607
0.619773455757725
1.3201125230235258
1.14180417025285
0.6010881633031013
0.12943776335149387
-0.26909879082916827
-0.5502865727493137
-0.625195985154881
-0.6756490877717443
-0.7940743454193291
-1.016977924043341
-1.2916066245390219
-1.5159989477763087
-1.2106085112703082
-0.24227596630839265
0.8457817105363064
1.4916925243991193
1.2536475403923764
0.7344004540328294
0.19243769630570634
-0.18127741117033946
-0.3683180308895776
-0.327977321447431
-0.2204415383612706
-0.20459949380852735
-0.3109097555225619
-0.519992049424858
-0.6077819548173354
-0.25675889431776144
0.5638802960495344
1.7278029227084555
2.207940612960455
1.9675455011017942
1.3490947719537656
0.7882546998978012
0.4082871293323839
0.21212311453308033
0.16427718564701527
0.12115109202808849
0.0003358234955934125
-0.2105559591585697
-0.4616677452724248
-0.537953332171465
-0.06580665822625176
0.9085131166003719
1.7878104693149384
2.1416788045560526
1.8108228414325813
1.2521647178188209
0.7239193057076015
0.4047506784815784
0.23807734956877835
0.15679971951891794
0.06759008732234953
-0.14120739745264393
-0.4453863706448862
-0.7097490980254838
-0.5797493166097247
0.12216062534458405
1.1718752644147021
2.23591818909398
2.2599619118098486
1.7982577545702598
1.2754007265970997
0.71425607173105
0.3237182319875439
0.1735047825107655
0.09124807846243727
-0.03175775366841242
-0.3001069074665282
-0.6229979766749152
-0.8385674132301034
-0.4750432126076542
0.509450939032822
1.7537505057523441
2.338850029249528
2.127622938202499
1.6151848484543132
1.0450291417265363
0.6036417938507438
0.3381449297279894
0.2014796441037215
0.14760745999490177
-0.035681871781939684
-0.3211299543735287
-0.6418912467045303
-0.9003423605015354
-0.5803217103020273
0.36615051268152377
1.6004081245773767
2.2772166870792088
2.158602809489218
1.7187016375448976
1.009368082287551
0.5940134253238624
0.26570569444751885
0.1666128347865855
0.08768624244641442
0.007216514623071338
-0.27465026346261345
-0.5259757067151438
-0.6782094241729699
-0.40268056517240225
0.5362035741139727
1.7918945407223899
2.517527289699657
2.431797391829495
1.8246145783634329
1.1958715609602606
0.6879492144750439
0.3821339968441362
0.22232386847950952
0.07230331542240712
-0.14136363559918333
-0.4757040131940664
-0.8010156420633369
-1.1071933036494723
-0.9863893433995041
-0.11768345310430511
1.05335000102472
1.9100498756322204
1.8279482304385302
1.2009239116209
0.5586248605384608
0.07755627321069106
-0.179770024783045
-0.2876382100532836
-0.40589355007151795
-0.5749032344004066
-0.8504321187524039
-1.1580890853710892
-1.4190768440595796
-1.185808418648795
-0.14405512199191117
0.9870189108798478
1.7702554337547216
2.0923410123316453
1.7488174644149315
1.1586926634998016
0.6306194266553764
0.28863033086921897
0.05596114222517187
-0.07576834527655862
-0.26200134256494423
-0.5395641585465725
-0.8897210386365282
-1.165284388192736
-0.8944627215957195
0.2184564846443937
1.4384791493084519
2.281623042085907
2.3398286714102325
1.8623576537766635
1.2134784992925731
0.7852427807532046
0.45812132571306036
0.3362716696302146
0.22587083155815613
0.016256004595351398
-0.2610493078500968
-0.6099683844271341
-0.8590870861884862
-0.5792756725732632
0.37889249837619743
1.550006700791197
2.5459716250147455
2.594810330798474
2.157802006901238
1.588228838509125
1.0408548131870607
0.7024994771532528
0.527004637620153
0.4368615540566797
0.26766385890273336
0.004870394622734767
-0.27984953928336376
-0.5441941646297972
-0.5004353271712259
0.34504367963372046
1.579350124278618
2.316461677807629
2.1589413826531794
1.6566336178573107
1.121447858579728
0.5793134450724221
0.1701995716669853
-0.13640589736824812
-0.42463174187275304
-0.7367531251564197
-1.0872993989278337
-1.3923830755038162
-1.4871796803712556
-0.9420256485950063
0.23465988817962025
1.2578386490241626
1.7079781625189698
1.5255557423771247
0.9323411231477584
0.329408577395807
-0.12483236105785042
-0.4179903787763638
-0.6064088053696276
-0.785634469431445
-1.0367283171555468
-1.361490507887412
-1.659237420916473
-1.6818838722612277
-1.021668073716795
0.07004111923674017
1.1199271136880449
1.3067958189401465
0.9124100930890946
0.4222567090686601
-0.1389937291301094
-0.4612017615057852
-0.6626719720100203
-0.7483770355759672
-0.9091628510810122
-1.1291965207814763
-1.479666663265798
-1.700585474280226
-1.5087606248319938
-0.6570105717313185
0.3054478092544679
1.0922045873989568
0.8555618364049231
0.3284850921593262
-0.25174752429473557
-0.5434502976278788
-0.7752247657614569
-0.8079424246278062
-0.8945137230360268
-0.9959659204057479
-1.2072382878382966
-1.4084126881739618
-1.5946699292716917
-1.3111398151229268
-0.24705849375472827
0.6448277757825225
1.2396859723404694
1.028686870019819
0.38382412994795284
-0.08423860304832514
-0.6329342484669588
-0.8329079020362207
-0.8969652880575422
-0.9527992567189025
-1.141239785985894
-1.3261369643539922
-1.567534095190377
-1.6106949472422019
-1.2213957007226321
-0.18211399487648333
0.7009579932150972
1.0947153399600598
0.8547353679848917
0.23730085824207298
-0.2115938354397902
-0.5823179808195362
-0.7679828142969066
-0.8437746244792476
-0.9094714399882868
-1.051381219225324
-1.2751553830540692
-1.5119875007031875
-1.4812927507284726
-0.8120928442752611
0.2212897576612725
1.026122005063009
1.1624120054217297
0.7263655566388366
0.13933572131548427
-0.3728810489880678
-0.7083263398779811
-0.8108537558743172
-0.877857835015152
-0.988997476964986
-1.1845409506394133
-1.4702918255589645
-1.6938255581866415
-1.5383045848035772
-0.7254698270710702
0.34313188475350587
1.076714240375342
1.020400461988722
0.43842992469133923
-0.09777745262664322
-0.5633839488531289
-0.8014060180994317
-0.8691230233579891
-0.9435578188841408
-1.059767642679927
-1.3045043201468118
-1.5554559442077167
-1.7108777863239844
-1.5311258744774414
-0.5377683689558137
0.6593913272576731
1.5375887024310244
1.4308414213103473
0.949779146643715
0.4259152166037878
0.044477879661214324
-0.13790676778658473
-0.22957976382564224
-0.2721166413287114
-0.42407540725154164
-0.6008214312221191
-0.8582264390955064
-0.9957089876218934
-0.7526152498556767
-0.10061882903076236
1.3376289517768112
2.112292019137172
2.0080031302546444
1.477565709400797
0.8150399122553805
0.25114822705827367
0.031637730004484624
-0.04833994249701853
-0.10212852351167043
-0.2669358818624847
-0.5493518337453662
-0.8396066741738792
-1.025701597341105
-0.7625241332832553
0.10029767886449686
1.223713676421182
1.8795434661673633
1.767287628481774
1.2522016134195382
0.697066527744482
0.28119511264277597
0.006595336344283678
-0.11965477351542572
-0.23541302480995474
-0.44856403503700865
-0.7614937574607042
-1.093100348780554
-1.1783985362633447
-0.6885665254480402
0.30340603822064965
1.341926281585547
1.7761724872485294
1.451029372860374
0.8427298679134502
0.32306720650478893
-0.04544662238009724
-0.20327884889678619
-0.2591042384531387
-0.3573440998585299
-0.5843675833373607
-0.861999459184988
-1.1461672994478664
-1.189405452579683
-0.652399778766094
0.41367678029426125
1.6377405686373323
2.0111998070304695
1.8467378886259773
1.4353621185498402
0.8672410926303178
0.5800548106124092
0.35417250191788585
0.3016862212674786
0.23053650044770524
0.0855140598438767
-0.16722274004257262
-0.42913026180799885
-0.6566679165147368
-0.3710003702460887
0.6171450483064533
1.7014516099076782
2.7337163120119397
2.63715264600929
2.0914365911713118
1.4831712683779052
0.9701369862802182
0.6690010505714827
0.40974371879249327
0.2756006772469376
-0.02498790208238827
-0.3103432662699552
-0.5325923369494966
-0.8717153528146868
-0.8111923428654086
-0.32244994715597197
0.8913152145520696
1.7384718156971277
1.9519470925045215
1.478555924531159
0.991640323511813
0.3682123281718045
0.05116911211759531
-0.15433629051947773
-0.3093792700665401
-0.5087330767929048
-0.7749054357926889
-1.084116168376405
-1.4004374827191128
-1.44957107304857
-0.7847440328635822
0.23377551716764267
1.070963372812851
1.3401062814693896
0.9705646044759009
0.4561293421797567
-0.019782634743554184
-0.3942648098794437
-0.6168148539677955
-0.718017852040809
-0.83141820328619
-1.027059360030389
-1.3007627344928898
-1.5719638398775664
-1.602928840482155
-1.0695864048811177
-0.15655967995504916
0.7113257457965064
1.0086460912957078
0.7617917243678464
0.2852140430499574
-0.15210934811387075
-0.45513767908484637
-0.5616539976744822
-0.57916855
-0.6200108893876327
-0.8203761005862086
-1.066682238360847
-1.2998394149753958
-1.389680091968951
-0.9382775764960325
-0.09157581236282042
0.9609248840908268
1.3874697037114632
1.1912461409245398
0.581376439417705
0.0364600502091742
-0.3142521230040789
-0.516837959216598
-0.5879921229148912
-0.7332546573018665
-0.9348760405163699
-1.1512692883882742
-1.3947512064299108
-1.6009548916748835
-1.3608188451229275
-0.36046926905741233
0.6721051316234598
1.0265592004217041
0.719651372359599
0.026008234738651798
-0.3854995471738903
-0.7921851626794738
-1.0467725327316044
-1.1677379072791358
-1.2291630536895282
-1.3961821887913453
-1.5991141019808297
-1.8483175
-1.8399050086066506
-1.4506764196318676
-0.5567812831369369
0.5945464018825224
1.0822476123839346
0.7743014098566088
0.3182430569333133
-0.17353850016573885
-0.504366398988895
-0.710729060648229
-0.7761244704621891
-0.8734687920072911
-1.0427162590173416
-1.2909343174457772
-1.540172968715116
-1.714522708938632
-1.1969631850079847
-0.3616136387564966
0.7428623946789038
1.2202551854465364
1.0124097076038567
0.5209795450325239
0.10269459979748967
-0.28122464834349814
-0.5559718411749422
-0.6520357070905446
-0.7567710184964289
-0.9099058204028007
-1.1291523394620007
-1.375949958782145
-1.5027645320427754
-1.216845374687806
-0.33992899202052695
0.693961782161677
1.331167976162627
1.1972918923935998
0.7319354976467506
0.23658924895126132
-0.044234286979800475
-0.161659397275947
-0.13833064303404438
-0.13383232220296787
-0.21841113285374655
-0.3892858673961991
-0.6208901688385202
-0.8250449662322556
-0.7882903183514747
-0.14073451420870708
1.1759023948988423
1.90073185172115
2.0433875439356033
1.5487595402905647
0.8432961790964899
0.4908287709612198
0.18367414762442985
0.07380261144386685
0.05547339487334277
-0.021937998364532627
-0.2559001078301377
-0.5321190995733416
-0.81347298
-0.7161730898542673
0.013321452821239615
1.3233074730762826
2.1733330097499115
2.2169073390997953
1.6897116812628916
1.1390538873608476
0.6661624718313651
0.2595819832357323
0.05646173071570136
-0.03930147314453751
-0.20551180854518517
-0.42697833134732677
-0.7761620932781786
-1.0391520957879674
-0.8861643375028502
-0.08558088346041176
1.123599922646794
2.0312773189471107
2.1989332099562513
1.7531253460077778
1.2170324429060795
0.7272497494492854
0.3900346141180302
0.25020210821557204
0.18199560846484192
0.06650268257805225
-0.09074618701638398
-0.37030762412492174
-0.655138158165293
-0.6493880887126731
0.13325338162952166
1.3248249539685306
2.286920041815845
2.5150468106773998
2.1649650310660755
1.6555723021314763
1.1461812218251333
0.7881113995417472
0.5904692653200241
0.4393597408960569
0.24023387192576506
0.024164517519499218
-0.3067148441446058
-0.6299947308409767
-0.6979129831772495
-0.22277411345229015
0.9667665126990342
2.151562275922176
2.719717382549655
2.5690511372162437
2.0306841752729508
1.3699689794003036
0.9422233969363041
0.685055793937928
0.5059327587896528
0.3951628568367178
0.1434263329011625
-0.13983357197976365
-0.4495526749995734
-0.62176705828487
-0.3250246970521254
0.7791211012278162
1.6956185662664083
2.3955427752183596
2.1324362571233904
1.47531160356489
0.9749339562879625
0.37868680779079283
0.1626639012270088
-0.025396085901043516
-0.19973375733543217
-0.5504554454124596
-0.8790377702845433
-1.1971806311335371
-1.368317132182267
-0.9689889940136714
0.3324760879482178
1.253519230574307
1.9411897609194375
1.7997929642726886
1.1115498945440543
0.536811125540904
-0.009360557870846692
-0.2576921569123034
-0.45416533685617805
-0.5830491564672899
-0.9197779426223471
-1.2415174443514325
-1.6385495955404348
-1.7111767077572488
-1.3067940204736157
-0.2633967882759499
0.9751415167995319
1.6823785158534001
1.592587945624417
1.014334091122673
0.4967234953296674
0.0239809396799784
-0.22927821368036466
-0.46886330135117815
-0.6532292077798594
-0.9127662997463264
-1.2079338172449825
-1.5058753837370011
-1.5615170016710358
-1.0492649978255515
0.05887802694856459
1.3359840848137745
2.048750621681701
1.9733404205809206
1.5293708052975339
0.9340918139004046
0.4430232508195915
0.11429786189530461
-0.029231168331975445
-0.12912139643521192
-0.3384804869963885
-0.6534618983442557
-0.9762272850902559
-1.2062723553287955
-1.0136734439496866
-0.04826833346284942
1.4731508549813253
2.312271963588733
2.6005272929797396
2.1864115792195906
1.728904556549686
1.2015710651810663
0.5726672391045763
0.3195505775611583
0.07471857659556061
-0.1455834760181145
-0.41182548074064496
-0.7703400443734186
-1.1789860033024473
-1.295741261993722
-0.7169383600994874
0.6070469811043315
1.5747686761751465
1.9876136132001985
1.67900382760736
1.203602907443404
0.5296114312398625
0.057516695723997174
-0.19873528750947148
-0.3636982317528663
-0.5731545688604953
-0.8261277802429496
-1.0150718245993002
-0.12014319103278356
-0.12909402824559416
-0.13804486545840478
-0.14699570267121537
-0.15594653988402596
-0.16489737709683655
-0.17384821430964717
-0.18279905152245873
-0.19174988873526932
-0.20070072594807992
-0.2096515631608905
-0.21860240037370113
-0.22755323758651175
-0.23650407479932234
-0.24545491201213293
-0.2544057492249435
-0.26335658643775417
-0.2723074236505657
-0.28125826086337535
-0.2902090980761869
-0.29915993528899654
-0.3081107725018081
-0.31706160971461966
-0.3260124469274293
-0.3349632841402389
-0.34391412135304855
-0.3601874615838276
-0.4468862492089463
-0.6436656859373857
-0.8974176278813362
-1.3084230364385934
-1.4515143614515467
-1.5582818588876024
-1.0317366484257429
0.03506780835810719
1.4621843528497385
2.08943337679809
1.9692255047992102
1.4437899223853659
0.8605127291814243
0.4460936062624738
0.18154040453124012
0.11475821953613873
0.00892157855343513
-0.20945216066395067
-0.4946471272581468
-0.8612156067084541
-1.118449236461427
-1.062502248876982
-0.3322779589807191
0.9369393129140393
1.9194934686640692
2.292103267491232
1.9745961638551934
1.3688704232215263
0.8757396528284378
0.40664801975126097
0.25133717277646483
0.06701376987772845
-0.09297485853855465
-0.3900387648175111
-0.6807034845166688
-1.0665861896699838
-1.2708872290159485
-0.9926842242621245
0.008975048641185021
1.267763046617428
2.1910550525758214
1.9702847336449674
1.440862592204757
0.8454730699532387
0.2942239958406129
-0.013219986100856392
-0.21849147527961335
-0.4288060772123776
-0.7100951269353687
-1.0771585992982398
-1.4312383004587652
-1.6861325885528635
-1.6938816248138335
-0.8611984217056576
0.4062266602040448
1.471797301194084
1.7607919124960287
1.4966873388916864
0.9991669177998734
0.4561315342445573
0.07370160085697897
-0.1992306897153988
-0.48531515842304696
-0.7122285688720016
-1.0064565319908305
-1.2467123257337844
-1.5984661793386972
-1.7352867824188516
-1.6958613266973002
-0.776472614907771
0.2937993772511929
1.3032103583452348
1.4066912997362846
1.0061239669982747
0.4228685256536625
-0.020686974351392412
-0.3153505165089454
-0.47139421262526204
-0.5732838439751468
-0.7496001428402855
-1.0214223184843951
-1.3004049473512047
-1.5973568338967188
-1.7998091221157526
-1.6668410950564436
-0.862518159719872
0.3752658823456567
1.1501732156810163
1.2468994977222894
0.763629181676027
0.2800245467649619
-0.27430349786660124
-0.636457367535142
-0.8441529505452475
-0.9813247453382145
-1.158088432178306
-1.3666196236049035
-1.6606814113681374
-1.6921146
-1.6921146
-1.7926224009175986
-1.0150535576766242
-0.07069428614941409
0.49807981221451153
0.21036183370100542
-0.2708159633828594
-0.7403596571157183
-1.2515004727841452
-1.4968300297750337
-1.6089113680095046
-1.684288916600315
-1.7638748150814558
-1.7669602
-1.7669602
-1.7669602
-1.7719111472723978
-1.6296598771348962
-0.7371851275954269
0.2739516809320021
0.5268902833007605
0.21928133506116376
-0.23961410244036013
-0.671743248700285
-1.0421021465216962
-1.2468142452593063
-1.3219109184650364
-1.3821726138928967
-1.5204279625541324
-1.6872255680645405
-1.7669602
-1.7669602
-1.7084701761960321
-1.3133732035067518
-0.3790960122185604
0.6408852887422858
0.7815060922125321
0.37390030402280505
-0.07032173864200894
-0.4905569396681745
-0.72127382365191
-0.8587429489366171
-0.82323567
-0.8354202850829752
-0.9209448172194125
-1.0482145649498806
-1.2157020226923467
-1.3817991125603934
-1.3342139954471004
-0.7971456391459818
0.3484434935907321
1.4792591376187758
1.7680741555887038
1.3704117214104956
0.8389043312487859
0.28478830428669555
0.015715463288099182
-0.10653969017372143
-0.1727260495559204
-0.2670494619215528
-0.40432031861768924
-0.5879035793934767
-0.8752338385385062
-1.1044462995093127
-1.1302376724046705
-0.6753436022237053
0.258201848193213
1.534022291158681
1.7004735408824876
1.273439157508902
0.7935056582559713
0.28207979694486945
0.047290938937431776
-0.07936505597874474
-0.1606687759159562
-0.2729653414306685
-0.48237542643713627
-0.8151577433775058
-1.022590120068744
-1.3246390435250457
-1.2722829393389206
-0.3836893178688979
0.7054686908836659
1.7603632977214259
2.0590030619553756
1.6894505169076466
1.3293992774249608
0.7972119211126962
0.5123071691042811
0.34158139734595866
0.2201474668470317
0.09191630585460446
-0.06474518590102109
-0.3111151754764316
-0.5803824758635031
-0.8026043830223014
-0.6893358584809295
-0.11347825712336632
1.4249760179684663
2.31097510652899
2.4840319459395634
2.078554189945959
1.7077449592681404
1.2088500682033367
0.9639812469375644
0.7453679067062811
0.6040016025318008
0.4039290235864598
0.17237855626872484
-0.0919331008731275
-0.4089020073320443
-0.6357739456943501
-0.40287985050848935
0.4651557383577281
1.7281046726809635
2.612417994049737
2.8413555149784266
2.575474423931717
2.1707768745560907
1.7851811536237165
1.5137450454026782
1.3113470733863684
1.127895810088504
0.9469995086159344
0.6793125505256074
0.3533799585147539
0.00986387735016131
-0.17588203786389633
0.0839791686478128
1.0403967707096318
2.113653362926125
2.7712664584961293
2.6751480975764603
2.1768523876324943
1.6900448946254125
1.212768631189233
0.884420684591892
0.6740429030500618
0.45773466784265526
0.15691345868406967
-0.14821806421813472
-0.473650289455402
-0.7923581437095746
-0.7809680079925291
0.03712017248316535
1.117791903149464
2.2581777459021106
2.726904129821524
2.493468392374709
1.969262793466023
1.4198555511243751
0.857675197136941
0.49860106853696384
0.28464264126441285
0.048981284874869524
-0.2488734119496331
-0.6046414704054904
-0.8943325013839165
-1.0576894871354028
-0.635462924830013
0.5786529869297986
1.6918310226528428
2.503161232259534
2.4180481950682613
1.9379790758767188
1.2602516290436954
0.7962580146093043
0.3633434496801545
0.1656895404272824
-0.0365666787865182
-0.28977509025819254
-0.7279665260656004
-1.0458385497822407
-1.3959707347033177
-1.5302059417466365
-0.6843276381577039
0.47789934744272017
1.9487368957129856
2.3805203632840746
2.1170498722980247
1.6186137006380505
1.0648486153600323
0.5857026489769481
0.2735694149003759
0.05196410459934911
-0.14694481408118432
-0.38554791883828454
-0.6611540500321261
-0.9293512962515142
-1.1027774990420456
-0.8698701103372932
0.04031273381675837
1.3430663624360393
2.3662538129236097
2.6487737442443167
2.273924894238627
1.6836848138129676
1.149498697482608
0.6886593811336078
0.44060209833500896
0.28480904325681755
0.07646372067583856
-0.2615739801507895
-0.6343777845371508
-0.9838505794016209
-1.1357354024396833
-0.6883468928001257
0.22039619992500314
1.5238211194808562
2.164659055164182
1.9885354196690899
1.41449130149168
0.7562220629940745
0.2770583214123102
-0.10286873715881242
-0.33838027160558115
-0.5399847558400274
-0.8147999725368305
-1.188057274605415
-1.5127475471682437
-1.7252811878373782
-1.5368100518946093
-0.7246276892564242
0.5859883868156237
1.8026659924510635
2.1065451470747183
1.7643532663265442
1.1784718085762529
0.6708934602198114
0.1030927577233644
-0.20819189100196267
-0.41071233208476055
-0.6242109992505942
-0.8603231048797969
-1.2295182474239326
-1.5769998904968117
-1.7853607271503968
-1.526117892784128
-0.3679580702093393
0.8522545628639441
1.6060484727267073
1.6920837074982997
1.2229409804775808
0.6514406020040753
0.07774015235262238
-0.29397233758785163
-0.5091585320652291
-0.6711585580732511
-0.8845105840994146
-1.1750738126764968
-1.505923792711525
-1.7409279999999998
-1.6324804309063066
-1.2764192526518296
-0.05964938473425618
1.1584227777809828
1.8292859448592858
1.7875908104212739
1.3590434045111812
0.8340146588129046
0.40465142687554956
0.12701706894368597
-0.04379146320129982
-0.2272827004999293
-0.44719406229129127
-0.7268680619710168
-1.0697387876396867
-1.4327121825124678
-1.5998659084938354
-1.23894993755757
-0.26004915235177883
1.0339476524445415
1.8680142607503436
1.9726576647751486
1.5820497536307685
1.0261859126929906
0.5430387947833892
0.1957889297251459
-0.02099685047441867
-0.2682657966342142
-0.5772833393676597
-0.9018064809658545
-1.3633892594615453
-1.6467113800916455
-1.7839222654201723
-1.2966505885411481
-0.029495498183184532
1.1807039057074784
1.9870787091968594
1.8433451347855259
1.3457230330691052
0.8528070182700491
0.23070142332346683
-0.03654619403143397
-0.2457948732388449
-0.4323414797353091
-0.6857035717170387
-1.0408244987563358
-1.3392465345809574
-1.7148844620859847
-1.7517677927594264
-0.9276829606154713
0.11315470570310548
1.757706912848973
2.378651553558001
2.287456093090056
1.794812777505111
1.2531010422802733
0.7654146885047279
0.38834747901490824
0.16476626081049084
-0.05512087614436327
-0.34996090477213526
-0.6842651325991359
-0.9790424459325962
-1.2549326681212605
-1.2832329533401663
-0.564289768414325
0.7108001339896983
2.2099105173171845
2.745909931136666
2.291785136623717
1.1220084045892518
0.7658087056234053
0.5386913915493206
0.3377642250325559
0.2575847214022786
0.17708152631610233
0.10366678150827685
-0.02818417544829767
-0.15892375532416037
-0.3355443656351168
-0.42717735241444027
-0.12426070424324379
0.43673829718864976
1.2005344192707925
1.5673853960416966
1.5271434924607727
1.2289162961553397
0.9101911708699295
0.6349386395707264
0.41738853895555905
0.28618089316371276
0.15834872365255462
0.020817739164825183
-0.16309041229746848
-0.3541768517822993
-0.5486503997714356
-0.6318008744118936
-0.3356677498767435
0.27115954963151545
0.9172768825150839
1.2195491668783365
1.1490618452669659
0.8432903613752549
0.527828315765376
0.23455568614566968
0.06500584591490266
-0.06973012692042795
-0.18686419134387106
-0.3597777667301003
-0.5574844710808482
-0.7950731931334303
-0.926510893042351
-0.8370654319608499
-0.4334628234255435
0.4080018518631716
0.8035762676893523
1.0616780109657793
0.9188442048611537
0.6106626331753052
0.34016302498684947
0.05538003254287423
-0.12906069181618893
-0.24462558828667316
-0.3505338581123897
-0.5173019021041013
-0.6614763559062026
-0.8314840801626858
-0.9807515680231849
-0.910095032453937
-0.4523437185287064
0.16281681928839978
0.7641715994653419
0.963638188792287
0.7594500678683848
0.47352561634564627
0.1933066343883748
0.005572148835207007
-0.10687867577323681
-0.18812741623342585
-0.2618451328840963
-0.382422828145641
-0.5233783406596815
-0.6733446575173759
-0.7787591449991254
-0.6289963668060824
-0.12869679890377583
0.5259798709503156
0.9904859062128369
1.067728064392205
0.819477898125336
0.5225883801566712
0.2347953726089016
0.0504531388630548
-0.04321040909121376
-0.14622689325232785
-0.24192875566600003
-0.3750549200700843
-0.5606382367905398
-0.7136145209239009
-0.69050368701729
-0.3127099339622092
0.18350666426157203
0.924671826994476
1.0472298335365067
0.8821132182190081
0.561541228507126
0.25669367465507975
0.03656959408739026
-0.055067754323683604
-0.13256750498833614
-0.21613471020075886
-0.35831061054571806
-0.5326470835316126
-0.7279213922737852
-0.8072585580104046
-0.5918130268515654
0.013697398837549946
0.816470344397993
1.1444944810665116
1.1621206859677904
0.9674902658451969
0.6600264639979854
0.39566001916431426
0.16409402708387438
0.06859759987189738
-0.03650407801236778
-0.18084059096453428
-0.3778728380449522
-0.5616685055798001
-0.7563588839219925
-0.7115392511551191
-0.2726721215505003
0.4301881570555719
1.0278919682140366
1.402963341853599
1.2491157339737142
0.9819178038475345
0.6555512264607992
0.459166757170381
0.24531341305221044
0.1325035723250306
0.015184510889939804
-0.15674582020193736
-0.3334918361262187
-0.538437607419624
-0.6314060114739388
-0.33198398174509797
0.19672079620890193
0.8809759825757741
1.3160814284801892
1.3546611522712262
1.0764533483033394
0.8028348074990157
0.4288610372874201
0.22004264937983706
0.09307491614057511
0.009890909424189905
-0.13093112300378795
-0.3161378014256364
-0.5094841469748658
-0.773566250107529
-0.7666790482970305
-0.2519191324163213
0.29642092730380953
0.8224843288274892
0.9132367842714478
0.6901180922393569
0.39546903534472166
0.10932163755712303
-0.10487819744817117
-0.2540353446552689
-0.36606193335717113
-0.46664910055468495
-0.6173126997358731
-0.8246278950573946
-1.071367884180835
-1.0982044960374386
-0.7903039630351815
-0.0628565171707538
0.33943909105432535
0.5957117033801536
0.5137545206824224
0.2581938762221957
0.022042061969119148
-0.19366730598417858
-0.33113474241595253
-0.4420337877002492
-0.5330632427929707
-0.658842771580009
-0.849570419587073
-0.9975522394492062
-1.1463385098116614
-1.0383873361348477
-0.5851551004884669
0.07660509567818452
0.4968058238010419
0.5655841544668607
0.3554422136388705
0.08494385752078157
-0.11949528196452565
-0.3593864602545823
-0.44458022811741366
-0.517283393837385
-0.6075361582170182
-0.7250120247599136
-0.8490561142440538
-0.9958016459423605
-1.0574918608626946
-0.9272579336411089
-0.3143588318158571
0.49218691348287413
0.8901383279040701
0.8620995236661436
0.5473586292303303
0.21962164559943223
-0.04034745650754691
-0.22396858491865623
-0.31974464095594024
-0.3547127693178234
-0.4379484780987701
-0.5321690477534751
-0.6466853372799836
-0.7562026506540239
-0.8464276892403448
-0.6725793852732506
-0.2041605721625238
0.5331652772921088
0.9456876948231129
0.9716777772997681
0.7645303560056217
0.5091975973394909
0.3241276292923236
0.1428407126630732
0.06745635520601226
0.04455792624124786
-0.07255903322047094
-0.19694272152357703
-0.36460140537258473
-0.5285884684199982
-0.5791036440605152
-0.40511673908249785
0.24472528618520958
0.685633354074422
1.052992913698643
0.9472754179287571
0.7529283938266906
0.470877718227493
0.24286673076294413
0.10573693062143662
0.011447034465375126
-0.0786187494946626
-0.20524529298708905
-0.34243643296299053
-0.5135532715722438
-0.6531369080916182
-0.5403285291797577
-0.038721357536018575
0.5976808781979945
1.19436654240396
1.3403296610294806
1.1866722133000507
0.9406471552376774
0.66213964544396
0.422411299047433
0.300016204686155
0.19668534135676233
0.08049314580629588
-0.059064488116628205
-0.23677002342423822
-0.40701536643982666
-0.5680357605487356
-0.34805692070081706
0.30056526115842047
0.7915264182918049
1.348506452449001
1.3288680151755632
1.0388401476924598
0.803178771669921
0.502400039988062
0.3127608993606845
0.18047252427493632
0.06857105745351395
-0.023469696451902413
-0.21468188613134948
-0.4270889507486003
-0.5931044470196906
-0.6614502650632145
-0.33867960827420224
0.2557743218903928
0.8901574463695129
1.1105622192643598
1.0333761186114578
0.7175533073687016
0.4640736552627137
0.20937446854957176
0.07182740339121262
0.028799010820227268
-0.06601925998787894
-0.22364634186332122
-0.41652615072852006
-0.6024497658618221
-0.742651557424894
-0.7018007969201248
-0.3561624094847309
0.21119131618603074
0.6486606321725203
0.7323411340445493
0.519095302863829
0.22470803351705324
-0.0749916065482447
-0.27274822265760545
-0.37624984814019846
-0.4752471261323121
-0.5849355647584789
-0.7283753090081144
-0.8989400013415978
-1.0557653823043776
-1.1063535
-0.902249225466985
-0.3554935739067305
0.27288142187175035
0.6009893181341097
0.550433622141195
0.3381697901338969
0.12722010523893573
-0.01757354113550906
-0.1419505758368619
-0.21424589647171538
-0.2743667906663964
-0.3831860067453628
-0.5081923595138569
-0.6948423229958277
-0.8180092535116399
-0.742628491224188
-0.3247722878632293
0.35446357538446827
0.6950833044476207
0.8097242856994159
0.6097838265224864
0.3015890647673494
0.11175391304268731
-0.07985605827397106
-0.1580917286140125
-0.2511902102930853
-0.33499943619526173
-0.45798297607329663
-0.6020113411775246
-0.7853993427213604
-0.8093804829881596
-0.5011506622154793
0.035300802063232384
0.5444234987698616
0.8701164863257911
0.7628100978497654
0.47785824099086166
0.25201610774399386
0.029847086002242396
-0.08472361031768527
-0.1702772095681167
-0.2520909777107351
-0.3857782621182532
-0.5105063458164341
-0.6627620214509271
-0.7888178532899345
-0.6681605783994482
-0.202985545346967
0.4427041939444308
0.9897242952754538
1.2062298203268278
1.0841974814401316
0.8512070654356584
0.6261909319909635
0.43821318367328255
0.30472275423272743
0.2223137569605334
0.10454071492499145
0.019382383177130598
-0.15499552359892851
-0.34111490923552595
-0.48124305614312196
-0.43428896304005044
0.042511476347548816
0.6163098482397295
1.0951770217867867
1.1519853658213426
0.929822156475816
0.6273017533188133
0.31832054947034855
0.12517848668317622
0.001679137550729258
-0.09619549930299641
-0.24019563969443491
-0.4030210369027154
-0.5832184966130467
-0.7490051151833698
-0.8706101800059387
-0.7782998460282899
-0.3515926404305905
0.2375339318024984
0.7533598893943666
0.8170024040243318
0.6489120144542765
0.35966179692095196
0.1341237701978062
-0.0491725147433754
-0.1802495375272937
-0.2598970073074784
-0.34497075426727714
-0.4443934986778206
-0.5688633520846994
-0.7381143720770543
-0.8253033287621168
-0.6766877760503232
-0.22978419815182566
0.2703835000241561
0.7542963312009565
0.806815675586918
0.634549932576215
0.3777949647614943
0.11951710314585373
-0.07536725456402349
-0.18111273369543396
-0.28977040470227644
-0.38007292123981723
-0.5069674996635978
-0.6572766887908158
-0.8233136377140141
-0.939837666467969
-1.0052031962263923
-0.9180142065709848
-0.3678046982587569
0.2692339389870681
0.8630551902749106
1.0105136673593367
0.852192940025963
0.659068457599108
0.40248301999891095
0.22443027251591588
0.11945384496285495
0.049193868165378865
-0.005873620603114801
-0.12718203996323324
-0.2492934926592794
-0.36344111178159466
-0.48760484652150043
-0.5774261343658691
-0.5288621344094664
-0.18525282168745674
0.41995239542611756
1.0249623644188894
1.281471706618858
1.1730460947980983
0.8912376277753039
0.6362033922250228
0.42605394702005844
0.23935500025322815
0.11097555369660352
0.014715549348298738
-0.12147345025548353
-0.28119178735833567
-0.4289076629031557
-0.5939562973890041
-0.7076408775098485
-0.6867517493376828
-0.3340591731711297
0.37730428774281455
0.985996262498176
1.2812942518009973
1.2458267012783188
1.0148456202438487
0.7593557659869826
0.5477853440197826
0.39381224771580053
0.29624348242270837
0.19201759960306974
0.05989882509271799
-0.09970897359821002
-0.29609343806068555
-0.4445268553492917
-0.1687178260457048
0.3028709635720815
0.7635387917663813
1.2242066199607804
1.2754230434926992
1.1235229247147156
0.9634405420043404
0.8033581592939996
0.6432757765836244
0.48319339387328364
0.3630129637035351
0.2692170390648582
0.11471766019151827
-0.04622179908189285
-0.25247050999090226
-0.5124333352974669
-0.63393046624973
-0.555659699555783
-0.07650149288881239
0.7009296703703712
1.434513214266539
1.6388244821241629
1.505142954466334
1.14570631230449
0.9244145213908552
0.613312826182433
0.4432905664322027
0.28006703851825815
0.13168948080270662
-0.048648739250475505
-0.268343992838279
-0.4721663912676203
-0.6800851834535815
-0.7755458405118193
-0.6047678337668726
0.043859191187876234
0.7990079055326215
1.2900947649121473
1.4022930013782289
1.1871375376177982
0.8881618283506537
0.5633956497766979
0.35179735261971024
0.18004039036899075
0.03721467319839565
-0.11250502227178502
-0.3010831662562
-0.502094523934212
-0.7210561062488645
-0.9350188052731372
-0.9286574518515494
-0.5555559905665045
0.06866507074420897
0.6575714813173545
0.8472254783614737
0.7070976005283466
0.3533771428076553
0.07543820258523648
-0.13960258827689864
-0.2988536573386228
-0.4218710183376118
-0.5602803535191633
-0.7119516556318897
-0.9240715906662309
-1.1405122233083367
-1.2848840901456844
-1.2746018531424577
-0.8825575420221417
-0.1857012184220045
0.4546536541553043
0.7393348943558693
0.6566765583177862
0.4304597304108529
0.1762295531342498
0.04186308030028703
-0.09857929679384668
-0.23545654433721147
-0.36961889321865676
-0.5335356984089235
-0.7356531843132678
-0.9121444457518255
-1.0587781952133593
-1.0964351411321112
-0.8386603951361621
-0.14407955311694676
0.6456600150083813
1.0025074935459959
0.9437710524104304
0.6662071971009307
0.3649413104862687
0.12509784753702233
-0.002227082525507923
-0.10296026618925622
-0.2073869909792871
-0.29325439634839623
-0.4118548317699667
-0.6040738280527073
-0.8104535698150025
-0.9487444646887995
-0.8729013766497924
-0.32706688034912174
0.4401113189875549
1.0328305541057201
1.212140789728892
1.0333537337392993
0.7729902771858572
0.5133333959999533
0.302660560088873
0.16249058036932268
0.08289804123320703
0.00947409035425388
-0.09862232517022182
-0.25321543532222845
-0.40054899806289224
-0.5202176055080853
-0.47999106452367485
-0.09128482965330997
0.6375452805603712
1.3354228535533925
1.6525404620476492
1.5318454494122913
1.253658236960025
0.9683703037575362
0.711333185317779
0.5455854300302595
0.44035829501495366
0.32310750446930675
0.17596353936367398
-0.004674096747783782
-0.2005404174193124
-0.331121146602477
-0.29750882098813264
0.06229540142996323
0.7986360013156035
1.478845755930251
1.7880045867124046
1.6638921395190152
1.3299222044568713
0.9597458819183948
0.6513670972152651
0.44970561308962365
0.3460130020093066
0.21898335897738558
0.08103387701868127
-0.14218119621234487
-0.34194926421142635
-0.4843353603149787
-0.38214528461086883
0.10848481330511289
0.4991048800438973
