0.64076046
0.39307077356811077
0.14386192862506042
-0.022375503362437404
-0.084910048
-0.0876621942777318
-0.1755474438844977
-0.31824173299498504
-0.48278758323052634
-0.6324344708555011
-0.7297864017489104
-0.7936042255627545
-0.8525037703980246
-0.8993083229311933
-0.7617520142392277
-0.21304547614764135
0.5807806155204608
1.2925489393193474
1.4811901185019678
1.3822440209465285
1.2000949222283672
0.923026812788478
0.6648983442849515
0.44654330214203364
0.3144361728853676
0.24685292531795988
0.17183711101771915
0.0712086350960722
-0.050213218815267774
-0.23878213536719986
-0.3933183295524771
-0.5695187087145319
-0.7235551502364532
-0.7743453804915555
-0.5460375368813642
0.07909246211460103
0.799152093007561
1.309763320090197
1.4379462291753502
1.2754937664924966
1.0287525225723637
0.777517173710205
0.48751140790612507
0.2835360090803297
0.20084453327162857
0.11772421845818085
0.015765492292874286
-0.13383300946216786
-0.3222854991929777
-0.48175644498730336
-0.5995803225037176
-0.7047611958721108
-0.8018425690953134
-0.7737398613229025
-0.34685856571800255
0.47057870400203494
1.2022991418469884
1.4671922090173286
1.4163491124710765
1.1952846873578025
0.9207069560887847
0.555923201838047
0.2876988252106646
0.17840549491667873
0.11148304725106467
0.0417406526668525
-0.07318162712873871
-0.25006373030370727
-0.40337640764890365
-0.5557454031717768
-0.6861137199448372
-0.7119003235970497
-0.42070210458036345
0.18445014305214974
0.9213472292423788
1.4257440274909134
1.5382181718354546
1.3770983108435446
1.1004625125315817
0.7588492199902179
0.45479510608631546
0.2542749994615163
0.14774675523075298
0.06521567816522822
-0.04166439595185721
-0.20270084851111947
-0.3980779298759427
-0.5735119047974313
-0.7413233492456233
-0.7081698109419178
-0.3856172075499324
0.3244273124773492
0.9122651420887015
1.1576897296105286
1.0769671951315785
0.8409181918807445
0.545313655895179
0.25948854179973524
-0.029379008453230687
-0.18326399643559368
-0.2583482006033948
-0.3521125318704659
-0.4714317437676846
-0.6218009168510831
-0.8026994360847975
-0.9409954765738973
-1.048057236879459
-1.0187208625518431
-0.6516901799973271
-0.05431616770438158
0.5580313327391253
0.8827034026634308
0.8852304663485334
0.7521279238440479
0.5497994075733974
0.28572304164181517
0.10966181247292354
-0.0046293568674734414
-0.06094766989962848
-0.12336933011961436
-0.2702357585313749
-0.42111359270706317
-0.5883531813132026
-0.7070976792416414
-0.8078921874188579
-0.6365497014248419
-0.15450267585897876
0.4493072500517457
0.8896059815327332
0.9764899983741788
0.8750932859215295
0.7419018007194338
0.48894701525033835
0.23009692210946925
-0.01017358296250076
-0.12613056805275624
-0.25296022316061534
-0.3580416707468149
-0.48006412895977313
-0.587034603399359
-0.7188766772182159
-0.8038510826820894
-0.8848310040664326
-0.7615873143988008
-0.3104770541912534
0.2430214818338173
0.7843479529849499
0.8980378197163943
0.821218230489617
0.6728874791956024
0.45845116584709705
0.16390409082854845
0.005117782782995142
-0.07678047249555867
-0.1176131551091539
-0.20436806061833498
-0.304383517374546
-0.4320568934393781
-0.5383345283204318
-0.6571725210055717
-0.7267891832608686
-0.6991731537218304
-0.34742397896802546
0.19495137643698146
0.6858743976475633
0.953951691143013
0.918853433142597
0.7834493138241214
0.5804534368482949
0.3395833891148765
0.10401607973136123
-0.023999730342793527
-0.13213320772183454
-0.20031023212915677
-0.34125779627294767
-0.4729926701775733
-0.5798789936142024
-0.7160165708904752
-0.8281835299131102
-0.8824852394837159
-0.8066845145643844
-0.36527847471491665
0.15057761739857328
0.5385604142220791
0.6713437143269239
0.901506383965139
0.862571656498615
0.464849531715006
-0.0486454177526815
-0.4529331458158383
-0.6433682961127856
-0.7326466505681757
-0.8334564560242325
-1.0485509195824223
-1.3355262639248255
-1.6085528203682973
-1.9134628989132656
-2.1577996809241244
-2.250916078356014
-2.1234034954704875
-1.2684328727137693
-0.14356345274238635
0.8185033374278626
1.049391186104503
0.826247326656468
0.5340221832450478
0.1460167050055871
-0.26898365707635286
-0.6623965982765582
-0.8901381324341415
-0.9993487642918818
-1.122808944305091
-1.3435056711276343
-1.556023675504455
-1.770915684774959
-1.9507422696881798
-2.0599529108262624
-2.1389126582614004
-1.9155272938985488
-1.0392395373441277
-0.18880606566714586
0.5108948165743381
0.41102303277669805
0.11513948892505466
-0.04086008353843995
-0.39463759189749636
-0.7374523990268003
-1.146793513326905
-1.2497447656323106
-1.2041277877648067
-1.2430930559793019
-1.4240760993923545
-1.7559788723561809
-1.9521597676072344
-2.0632457319253574
-2.1213505532391115
-2.2192264809125897
-2.186339324475778
-1.4250738042907214
-0.42187926118221
0.5721850088741499
0.8048511103997708
0.5952984650439098
0.3615261593158665
0.0675724031194789
-0.40440093724900755
-0.7775190261107883
-0.9742917171865026
-1.0974173009127115
-1.2144287220185432
-1.4281323672595438
-1.623166940385716
-1.8470764153370938
-2.0303957985612224
-2.2031407000000005
-2.2031407000000005
-2.180715718583105
-1.9817963663398646
-0.9922671958442576
0.01858100067214341
0.9183265702998369
0.9163118690678742
0.6479813689338643
0.2697626415966029
-0.03680717988202975
-0.4900339407625617
-0.7665392546135781
-0.9170585138411456
-1.0028512161410688
-1.152474738286875
-1.3045895698152996
-1.5028690702225818
-1.6783861223355019
-1.8951713671777939
-2.0355850088681438
-2.1311351983583635
-1.7379678552950042
-0.8350342087890041
0.4931670509637977
1.0051294185344566
0.9433516942111533
0.7186898436428795
0.36493128755276383
0.04006504325137179
-0.3688655202501753
-0.7599323269838847
-0.8753991512581867
-0.9710795885036851
-1.0749309102771756
-1.311252130466032
-1.5125117206769065
-1.7196408598665427
-1.828849949861176
-1.9670853540413433
-2.0466941655701003
-1.9731376925840831
-1.3436645218702348
-0.06627784435146783
0.8069710032242026
1.1907683117233607
0.8261124367425509
0.47008742935799375
0.16138793367803816
-0.24966810815788018
-0.5304954233568953
-0.73214719
-0.735493804415278
-0.8333352741019854
-0.9542314345519904
-1.2785317987898708
-1.4816120377581212
-1.6558896079459775
-1.804682903448474
-1.9480404519387549
-1.9777725085449773
-1.3381274830945125
-0.35553697926202243
1.1213223842805924
1.2929547368222634
1.0645763338133671
0.7730657709707168
0.4540084257144184
0.058984027491426436
-0.36394499927065616
-0.6713212309466616
-0.79098693
-0.8109078775398273
-0.8919769935192919
-1.1299199259383323
-1.2977903183281612
-1.4826318321295957
-1.6508188529271244
-1.7908177892330304
-1.934217600310894
-1.7782094872319052
-1.0617685887807204
0.07734805753215401
0.9640993776419073
1.2343209811706186
0.935638654402862
0.6484219291440455
0.30627991173640595
-0.12614984621357023
-0.5058215439291524
-0.7587419456378599
-0.8830770261076664
-0.9829111403041146
-1.2688384900426606
-1.4798645128848802
-1.6883992801851926
-1.8124620055044676
-1.901152279899066
-2.001056951697312
-2.0262974424118565
-1.6983739131816549
-0.6823144942929833
0.43856536738831586
1.1689645953331453
1.2585019192301514
1.0146280258238547
0.7035181161387912
0.3189309499761098
-0.009534023369276216
-0.30200935066771384
-0.4459747001268097
-0.5448776270109966
-0.6936489412142925
-0.9245354366395755
-1.1755823008686914
-1.3676745884247536
-1.5248227769786287
-1.6415933315229472
-1.7474207930716528
-1.7877248475057146
-1.2716324534367562
-0.5016149502047241
0.7290182939112191
1.4571119938448946
1.580947071490396
1.2204498963356187
0.8515138698932694
0.43616583390793584
0.014284375117065429
-0.38098486467089077
-0.49920389196232384
-0.6369821577483336
-0.7292258577295436
-0.9443827818829863
-1.1247761401955492
-1.3325267137841756
-1.533378356267864
-1.6849008014033997
-1.8366381643132126
-1.8509335830506128
-1.6401271980026806
-0.5503799012496924
0.6184983793865909
1.4182357631490161
1.5258363358439804
1.1661303217495937
0.7659427676693998
0.35741620965099474
-0.04617518892267401
-0.32086615106056326
-0.43022244215849037
-0.44255511431090894
-0.5137996525486831
-0.7249173876473071
-1.0003865578075044
-1.2395523445435297
-1.413475084243799
-1.547748570543094
-1.6736267407401457
-1.6875900365428655
-1.2778143257887573
-0.2650276794777616
0.9267882935115572
1.6990886768532059
1.6635086368439103
1.295629478251122
0.8634487307312952
0.41203554336103043
-0.01451710314447506
-0.2937039777283619
-0.4094834453333879
-0.48356620815092777
-0.6300620783375244
-0.8512745849334405
-1.0593134315997064
-1.248700694224008
-1.3893267193683145
-1.5712917359137013
-1.6202642083973082
-1.5450590966867406
-1.0836915426915137
0.06510258159347626
1.2468755557065418
1.7740848614426883
1.645046367807566
1.2927227400333994
0.9316829472777965
0.49647920016225394
0.04449594839722246
-0.23289806259524054
-0.3046601278055282
-0.2883959257145858
-0.3948940433545477
-0.6432730349911984
-0.9697684388745206
-1.2929372958376248
-1.5525392915649392
-1.721953339227009
-1.784100717027487
-1.341937238018562
-0.2731924409879751
1.0118758687690141
1.8911390889099118
1.9830919203604755
1.6841362291698192
1.1945486497331916
0.6864164733321083
0.21897480126646454
-0.07519875408981577
-0.222510526428528
-0.2990225816237281
-0.5404880512176061
-0.7666746387680374
-1.0318778545421003
-1.2340339791179427
-1.3845104508777348
-1.528172805924815
-1.4632306987869799
-0.9380665035457535
0.23452682653038903
1.5630904805614223
2.1842756216175987
2.0961459484267237
1.718302416731653
1.2999295164220452
0.7973325438546632
0.3534819057958656
0.15991436677198687
0.11741931186880344
0.013670739044230176
-0.18794141698857908
-0.44185732364930613
-0.7489102667680816
-1.0034564652102842
-1.2345714173953606
-1.4337864613790494
-1.4062188270206348
-0.7553399196612377
0.48723577988004924
1.6559569057384556
2.2311152964508887
2.124479457240375
1.7579855328187148
1.3121479293584182
0.7723730545216166
0.3551228279030646
0.10817356416295519
0.03519314811984862
-0.02162330513704079
-0.1961187454575034
-0.4295547752644149
-0.6567539542787257
-0.8963461702849533
-1.075675759312665
-1.1191318853878691
-0.5446637272768869
0.7108250202436466
1.9571442977575395
2.634558340002784
2.6198369106883233
2.3431567757187715
1.9515613832156715
1.4147768313899975
0.9211464470614752
0.6121513998495275
0.46297445080072225
0.2791203816445459
0.04620692914159105
-0.2266487308089865
-0.4996061523762154
-0.7680983012886538
-1.0174513615474954
-1.119408963260694
-0.6300439935989701
0.5056862198276472
1.7152279691655747
2.5443815838905346
2.602251791867589
2.3011206657640497
1.8654351516122198
1.359954753924482
0.8033837772758874
0.3547081806627488
0.1503898268234377
0.008171262305701421
-0.2096017359583609
-0.5072064179047248
-0.8491609929960894
-1.152803812406543
-1.404382243843247
-1.6131087544791196
-1.5325214967483394
-0.9484180315832252
0.2560370840447469
1.6209194983865878
2.2821902642485314
2.347068576332473
2.13131102934486
1.6125163879556386
1.2289473883712283
0.6267870300325125
0.30815650930911753
0.16693986903808494
0.022524239747772984
-0.20325167149687862
-0.5066306189129517
-0.8249280648594106
-1.0673272211917741
-1.2825057883470536
-1.4611083813717398
-1.174307600352017
-0.1851754765288557
1.4481606801448605
2.6308448009704026
2.8376316115428883
2.6190422808521974
2.3126509247503675
1.8708442691250529
1.1887034010497504
0.7054749220847192
0.4207293211857066
0.1500367026719111
-0.032572962528502114
-0.29908408585186685
-0.6467303626593495
-0.89234728208083
-1.1387220101340827
-1.3520667133609885
-1.4711148313122218
-1.1490681404672831
-0.07275182106688838
1.438767600734526
2.492922997895341
2.855186433256472
2.6431236757172494
2.202859894548583
1.5703843765041072
1.0095685705967807
0.5373923551102687
0.2876546592224031
0.15305737640668363
-0.025252732533710798
-0.28897771496629276
-0.579286754045798
-0.8274791175997447
-1.1128718592424307
-1.3381551008480739
-1.5225692733413365
-1.498062648102237
-0.5299106238548532
1.0044598499343527
2.2948768798856944
2.8202748911552895
2.6313060755596736
2.260933551959733
1.655476112859203
1.067991863210282
0.6518757419263164
0.4061271229246708
0.27568439723627336
0.12527893597514983
-0.15235115450726472
-0.5533387013177327
-0.91043120021191
-1.2263032957165543
-1.5087357605412965
-1.7489004337393368
-1.8455428950460577
-1.0577512741154615
0.3584166294804968
1.9000602881884752
2.5354102782053136
2.6754382786981723
2.331743596563428
1.8614155458592068
1.1807998407765123
0.6395553128591721
0.31560930264023357
0.15305091528483875
0.006065638775094362
-0.2881363797731217
-0.6304203322840507
-0.9747911811706012
-1.3109738268888873
-1.6675352747173877
-1.794964026819255
-1.653300171044096
-0.7399950424517355
0.7190219838637076
2.384782696325966
2.8038622673730886
2.710284542470102
2.382733254271406
1.8745188487730466
1.2729067936175043
0.6997307520612428
0.30263197834916766
0.09355604503123455
-0.10613722762313589
-0.4580714864922732
-0.665822051932322
-0.9303673981467946
-1.236843064580431
-1.5404198093504449
-1.7216552849074154
-1.3316002182648268
-0.16764719154084196
1.2520218644418466
2.3374593479701598
2.6130691054659687
2.3017645433809455
1.7767010337386668
1.4022645498366386
0.753919012109225
0.32531818294664017
0.17821147657808953
-0.011742579634863269
-0.2747222361602851
-0.5872676310881716
-0.8847968415366789
-1.2398763426194552
-1.5363873124626228
-1.8406028959096437
-1.7215529525652455
-0.7972592097853668
0.6375413087607069
2.0279511874425977
2.7378358066152755
2.66402491336014
2.334632932848953
1.7249981591862908
1.2135568279969913
0.749362528247771
0.42116816734508306
0.2201349387101087
0.0526701276191056
-0.2749457593582462
-0.6094609383745361
-1.0127462279367656
-1.1840317733773602
-1.4652603597883669
-1.2261970348336457
-0.3056918894888887
1.2449916410103494
2.824881089161855
3.234937047768722
3.2163662750710125
2.825825796374784
1.2063646896998759
0.88881382135952
0.5706056545960646
0.3568012236216011
0.2295224849382613
0.10833620205197267
-0.06722382137361681
-0.2743277140872371
-0.5177525279091097
-0.7127063005781162
-0.8912608938173121
-0.9337118199590428
-0.6025102317882906
-0.03504490774750466
0.744605214579474
1.159128750177279
1.2052964904490873
1.0261314293944983
0.7872854787891069
0.5517868316958235
0.20123582939214074
0.022017361363556687
-0.0674279495628015
-0.14462339485184508
-0.3180755601218155
-0.49100557123773486
-0.6569612423544742
-0.7836133556101194
-0.9203011035942169
-0.944489032264625
-0.5311992988779992
0.07316864345141694
0.8510060801011353
1.179844814846052
1.2303811455440685
1.0993277726054198
0.8497160095809568
0.49335148452375044
0.15814318917448003
-0.08488095686694234
-0.2734565018389926
-0.43340938333635953
-0.5435575481313545
-0.7112134769600884
-0.8865225044107007
-1.0402126276541364
-1.183354377170324
-1.1449878122613597
-0.8485745837892502
-0.033847463310845316
0.5614995941769088
0.9997252956596504
0.9816516593748804
0.840357803583907
0.6925399009496653
0.3680786679472901
0.09636796760966782
-0.061866237374003236
-0.2170036697703185
-0.2969298580928712
-0.40592579877964025
-0.5472188726682137
-0.7268524540833939
-0.8679326057719734
-1.0007231216316903
-1.0590723459775466
-0.8455250294323609
-0.3134659509901764
0.3968387559854144
0.865218092398928
0.9310762319430168
0.7891764626161601
0.6332245097218198
0.32054697541039834
0.08479586623734864
-0.10224825034755225
-0.2000235643678336
-0.3014490324276727
-0.42826224648950795
-0.5719054415996693
-0.7198406426767879
-0.8565399411203424
-1.0125394960837562
-1.1024605552511397
-1.1037090246610886
-0.908472933925828
-0.3741652901112691
0.32544270383643853
1.0474017958572341
1.0655201012118551
0.9377184662072084
0.7092271041561083
0.49079025476332894
0.1977528553090774
-0.005918802347436122
-0.09316298471387184
-0.2242079783850479
-0.2949680349173884
-0.451014410549318
-0.6035247025851127
-0.7531637722625188
-0.8887405908568689
-1.0006046855668238
-1.1125109189295268
-1.0198849455581422
-0.5756078688007793
0.0785714300919663
0.6945534946894998
0.9902372299996074
0.8993742078258816
0.7158427370649625
0.4624894858113541
0.09928292201849181
-0.023728471595917226
-0.09442748512877762
-0.12799652382713111
-0.21195008900217213
-0.398427408541988
-0.5232551449138422
-0.6816958226947367
-0.7691750086137947
-0.9129515284169945
-0.9733444388948899
-0.929568033050121
-0.5140668940214274
0.1625709124235194
0.7974337075883899
1.1742076201084053
1.2104932836917912
1.0426818310949943
0.8271522305741326
0.5338916100882137
0.19318825870066111
0.06836051835152968
0.002518111780322553
-0.08274762043008581
-0.2075717652270515
-0.4019104819389756
-0.5217757994019764
-0.6804294185770898
-0.7709864776023165
-0.9141290761431725
-0.9660067043075041
-0.7658026313573216
-0.16915959638607603
0.5804680033599368
1.066525767934532
1.1619036165818304
1.028948705769157
0.8232710935711236
0.5911538962107996
0.2997419696974415
0.062459662772432166
-0.043851491825202704
-0.10271242798253474
-0.1772224773432149
-0.3165696962291512
-0.47388511822063284
-0.6123779001970378
-0.7324401570240457
-0.8450134884267602
-0.9390003628261276
-0.9411290434595398
-0.7075360472206429
-0.11796838857731601
0.592669607760532
1.0918927704224548
1.175070840053048
1.050559209900071
0.8451136826408928
0.5367790908815954
0.3003960542270635
0.07418965296381985
-0.02069387123572028
-0.10574493383416317
-0.23372329055680452
-0.36636738992215384
-0.49248613922138756
-0.6044403073914413
-0.7300396703481329
-0.8592576252673653
-0.9159982790408736
-0.8259023401974286
-0.4199050615404542
0.3072938492308193
0.8871457612845266
1.1398227364770073
1.134353609586346
0.9928538401932894
0.7681919578066543
0.4691949366407242
0.20616860811960747
0.095232258275929
0.008956943725067928
-0.07934270095127742
-0.20304724361536242
-0.3719378365620748
-0.490493774953617
-0.6558251327490333
-0.7797568439926308
-0.7623518291187998
-0.40424390573773733
0.26172828302631157
0.935425395255921
1.189456988223222
1.1361926380958505
0.9255667964966543
0.6673776898121043
0.3568216403938914
0.11105000637231734
0.010915626309490355
-0.06058175708420695
-0.1578134733334097
-0.2745544759485242
-0.4240254600391581
-0.5588157018101042
-0.6961143871088048
-0.8029520116407144
-0.6574612509221707
-0.13163249402188548
0.6128397978238012
1.1647316582025644
1.2805469598963777
1.1560441107906168
0.9276399407895854
0.644379122076755
0.3521714655492935
0.16075815270242494
0.0657276082059019
0.011801395322656217
-0.08003213848949862
-0.2291036774121039
-0.4028295041695964
-0.587122429768947
-0.7302546962478464
-0.8229208567738429
-0.6809747400929067
-0.09569025174591994
0.656136360136549
1.3198099870863236
1.4689488301091427
1.3724238272751863
1.1480557924714583
0.8604968219100657
0.5709611116858626
0.3472461953558942
0.21093434630871855
0.09119838669621096
0.012338378628188124
-0.11775974630215214
-0.2896311889344557
-0.4605476463320283
-0.6066127713127022
-0.7333709832762068
-0.7782924307516168
-0.48505179699594175
0.1752877204838283
1.0029108247621035
1.4555777342570813
1.5156417628779963
1.3713952789741377
1.1609049145536083
0.8197044847265722
0.4641964801858678
0.23883985757010212
0.11802459061951052
0.047673357822352345
-0.05664388843848836
-0.23400508913954193
-0.4180928006782205
-0.591544965948191
-0.7649971312181614
-0.9139549056459256
-0.9989137516086534
-0.8010440074334707
-0.10811443068483795
0.6809271281704079
1.2353178791227597
1.353700006621933
1.2425525794729644
1.0346340100126605
0.7066725244162336
0.403687618132862
0.17075454213078656
0.055751800395350194
-0.00863197917801592
-0.11490424121595251
-0.25283614042961366
-0.4040585811124187
-0.5536880082485545
-0.7200439575608659
-0.8340981345467822
-0.8743190453552496
-0.5938501358066062
0.16700674457817632
0.991506582597426
1.4691814472735425
1.5039795512214216
1.3136841580597354
1.0396589039394863
0.732249738225486
0.39293079350568766
0.19775064329571834
0.07437641337335132
-0.01837264293424
-0.1614840463190439
-0.3487487347389969
-0.5493131779750797
-0.7005380111876482
-0.8534809518128256
-0.9571308315348271
-0.9753958775792398
-0.5931170358007889
0.22984210634340135
1.0634412834180207
1.4585284048095657
1.4830134562221038
1.304661152570312
1.0762596364115649
0.7223451073338722
0.4151162057173371
0.18823854482897576
0.052771368679296285
-0.05066814090920688
-0.20394406167974605
-0.38293240740931056
-0.5672253330085846
-0.7336753198737621
-0.9093130922616642
-1.0410886332368543
-1.119687597839153
-0.8083101033428084
-0.0517246215771785
0.6555614617003431
1.1147130383221635
1.2697871600820674
1.149362323017383
0.9016726284369091
0.6292192087821373
0.20601475637295483
0.02311678210891146
-0.09499639695544593
-0.21969678513228302
-0.37534281730695424
-0.5469861159265872
-0.7204382811965576
-0.8938904379702687
-1.0439636979623308
-1.1477578951007967
-1.280814408381839
-1.1287174884913316
-0.6755257200504827
0.2169834779106138
0.8740303689705707
1.1433164737722368
1.1110390122201965
0.8720052707883031
0.6000093580169255
0.23402180584505855
0.008313776632711878
-0.13972869152498757
-0.26986101487613795
-0.3883239616640632
-0.5109260312126279
-0.6875779232840709
-0.8549564883293456
-1.0215682111717062
-1.1426020609318701
-1.2349040237442857
-1.2299935150613568
-0.8765173528155741
-0.22135257571244926
0.6234369114627171
1.140154878529898
1.2667528187954147
1.1073642703651854
0.8589321925800507
0.5080322955605796
0.21238000881724173
0.04045531311346931
-0.06470817136455383
-0.14852915994902918
-0.2906434215166408
-0.44084923114915997
-0.6178832948083031
-0.7667792932248658
-0.9016339857329627
-1.029228640742278
-1.0703810582737199
-0.756658575769182
-0.01284568957258092
0.7449739422444815
1.4081781102992539
1.5254530834468554
1.4413270282379316
1.2189286322729356
0.8735869338525442
0.5061494288747013
0.21648831288314835
0.04664823290824072
-0.0220082184065937
-0.12709526709585894
-0.30329701103937223
-0.54462792293311
-0.665628917690922
-0.8103329916779276
-0.9511195131191627
-1.021894265055626
-0.8471572577953895
-0.2576911290803462
0.508298414488863
1.1989817842410702
1.4764864255145145
1.330501905431013
1.093897085510633
0.7852735572980176
0.42393657007368446
0.15091001363004264
0.013450247420932461
-0.09512553501935922
-0.22062288118570028
-0.39959537494713376
-0.582055813819057
-0.7459073223461404
-0.9112238622305245
-1.016765131107894
-1.1197384953863203
-1.1396073553521033
-0.6809067279926959
0.18985359389299444
0.8997382051110905
1.4398097503352303
1.375897541404997
1.161393532127958
0.9099550909295571
0.508013624503117
0.24828944776315143
0.027381809172159058
-0.030153542395215435
-0.15941470496981364
-0.2920119995758077
-0.5188886289633422
-0.658747480091678
-0.8212183769042594
-0.9343449791201237
-1.0398350946552797
-1.0278485914290711
-0.5862994971718092
0.08281594334622736
0.9264706933662269
1.562533036203122
1.6646761702286617
1.5109503741077701
1.247881722115381
0.8759257242433734
0.5593068626200723
0.2799267651646633
0.09227360482077572
0.0017606742503566836
-0.12319957371342216
-0.3327914462514577
-0.5099866258707743
-0.6795098946865872
-0.8520077696189451
-0.9721532996934942
-1.0515183322714625
-0.8780921398126778
-0.22607575304953467
0.5970154116921291
1.253208507076618
1.5431574548882392
1.5521520624378031
1.3778783868429898
1.1026375181398946
0.7675594867816533
0.32831427966697935
0.15938325191486447
0.04828716614540005
-0.05432699109986429
-0.2141314311844537
-0.46184530662802364
-0.6309343159922779
-0.8030206226031503
-0.9768198793880308
-1.1029989985099857
-1.1356262597074513
-0.8527688852578145
-0.1292354323458803
0.712261218729547
1.3112667246891279
1.4741762482880114
1.3118430749141947
1.1077077836033589
0.7868873939260288
0.4426457919208503
0.171667630952466
0.011369947281442316
-0.0897579962570735
-0.2081793000932076
-0.3855386931025918
-0.6139428270529156
-0.8066064055348007
-0.9723945500835364
-1.0923759020030888
-1.207086001596218
-1.2939085199689528
-1.1642833511891577
-0.5973264181204263
0.31213669617575573
1.1441081517871872
1.5174301746299725
1.4809580750072873
1.2636273894788719
0.9847126747185759
0.5993404483648971
0.2792250427244663
0.09523678020382394
0.011217029459777494
-0.10274881105201981
-0.2522774098046285
-0.4712761708242319
-0.654524422011713
-0.7992824820760166
-0.9793629023664208
-1.0989656802837773
-1.142240186394703
-0.8372584677719833
-0.13231832186650289
0.7289479125663373
1.414423319680135
1.6108636141913928
1.5120210287982572
1.233772644140739
0.9194047686455958
0.6153180141905015
0.32016887164851676
0.14994956862606215
0.08185351797814114
-0.052550641872708685
-0.23312928153552542
-0.4454831423835307
-0.6420622586606153
-0.8267763210832626
-0.9789367447980074
-1.0897540037131312
-1.0735673714137774
-0.7087454679601635
0.07256964174568156
1.0907486041977408
1.6538940182954478
1.7728672398297354
1.6437869934662526
1.405793456965247
1.0720172832726564
0.6782250909057307
0.3871892635015086
0.2041617875301308
0.08485445155092763
-0.027978415329201818
-0.21127847785844256
-0.39121207208318615
-0.5920791113563587
-0.7702602847538553
-0.9163389838095727
-1.0211306065033714
-0.9800169078614213
-0.5058415104290956
0.39189834513117433
1.2006488514570834
1.6080153584582542
1.623210711044901
1.3917176092352925
1.1041906094181624
0.73681023865193
0.3704100597534635
0.15332816561898752
0.06908859422458585
-0.023125953420622354
-0.19853410882287548
-0.42175141593277604
-0.6309260027440068
-0.8249849973037506
-1.0183488603671609
-1.1671511442226068
-1.2472061999070907
-1.1151778265882086
-0.524801466506881
0.4055692357039384
1.2287091913391393
1.6036317167613454
1.564740273991605
1.3052041104385723
0.9889297401797309
0.6144933040051695
0.2900226056291113
0.1042050502436926
0.0029608680635455076
-0.07589977376547483
-0.268075977890242
-0.4537646899785294
-0.6431056000271365
-0.8796385571592641
-1.0377014972735086
-1.1578584843194923
-1.0840791661012108
-0.5829906384632932
0.2969007231343709
1.197614698307794
1.7103860875222434
1.7513658496419067
1.5517997654452338
1.2422651666346651
0.8467807413653852
0.48105668213221847
0.2789996779731724
0.13306273785917702
0.04369218152769881
-0.09844698814625016
-0.28925264626124014
-0.46276668392972464
-0.65029303215032
-0.8497253150021977
-0.9783364388300742
-0.9225470742112313
-0.505420919202709
0.3144258181664179
1.2358497323975628
1.8548606936825338
1.9641187282017383
1.804182136867215
1.5019688697928881
1.1210856699704232
0.7435259364327528
0.4404044730834803
0.2727116251754912
0.11299839848908996
-0.06400814072225078
-0.2642487557986031
-0.47006828427571773
-0.6777136599294665
-0.8523562637398668
-1.016608610171327
-1.078172604728312
-0.7216220462101602
0.07118235762657926
0.9234327926884897
1.4621409208911944
1.6132632911594738
1.446021431031646
1.1548417511802378
0.7941870532396115
0.42639682700236436
0.16301951694594294
0.01695352193083865
-0.0981584678703298
-0.28884670547074776
-0.5292591614316609
-0.7515476210169509
-0.9352223652673437
-1.0851037980540539
-1.2477425652835
-1.3671433289863568
-1.299029906352121
-0.7963707948154988
0.11636607155461498
0.88719402505853
1.298029247647332
1.2685628806526459
1.0189633920011056
0.6833353904402845
0.36460428525038635
0.054059374528880655
-0.17691049557795527
-0.31924148806227315
-0.4454639060775339
-0.6065961430254434
-0.796504127732843
-0.974299135651139
-1.131437970755755
-1.283951040124844
-1.4262853578768244
-1.4821905934080943
-1.2314621430865924
-0.6087587774343715
0.31909693576867526
0.9156723578083653
1.134412610879865
1.0166306560819751
0.7516140981621477
0.437147976037935
0.11744191092967049
-0.04928114834608097
-0.15915094199007276
-0.24347723257159803
-0.376166552574555
-0.5528917468397305
-0.7210347034122316
-0.8928559083366704
-1.0318619417372492
-1.1471790221687888
-1.2461703520235436
-1.0882800356326332
-0.5068792583138781
0.3187774954197725
1.1047007572717682
1.4166555751137373
1.3737078166289654
1.1801488176487263
0.8953876677933228
0.5659756678096892
0.26355111931014025
0.07444426436313714
-0.05164040221140334
-0.1658724520169416
-0.30930262295240296
-0.46534690255285227
-0.6576451962397418
-0.8218688147270748
-0.9783650325495866
-1.0846372131939983
-1.0580815569264634
-0.7569191278542536
-0.035115486933825824
0.803941735306939
1.294349731254267
1.386114179713662
1.2254874341891164
0.9685339839853092
0.656488013617111
0.31643317401831256
0.06816940969906636
-0.01162824573161822
-0.11413418804049594
-0.2514559573151266
-0.4647624539546416
-0.6478924603421253
-0.8156276642636479
-0.9180423822134199
-1.0342295631140885
-1.143452894034433
-1.0113189285797193
-0.384482671076935
0.5243966094915898
1.2058721037633051
1.4702281733653813
1.3644006391656633
1.1215444496835114
0.8240462718566177
0.4644825366960015
0.1304011852248399
0.012272675649219737
-0.09607959257529165
-0.2205513816480406
-0.35886283537942926
-0.5303491074939848
-0.6877286677264757
-0.8530002438141424
-1.0035238272170297
-1.122497677210429
-1.0097037367508617
-0.45580037181717104
0.3820590776295649
1.1034849422005832
1.5138432207763561
1.4757151825612664
1.2413467239364122
0.9368062560874623
0.5617206344478571
0.3271229604957133
0.18678310277417437
0.11778825807550147
0.04347364069496764
-0.09305454898662223
-0.30876263719653196
-0.4704260367947427
-0.6264944580948014
-0.7453352640126321
-0.803312104455962
-0.4329909077546409
0.3590286040805066
1.2476000982379754
1.759406698833697
1.875171331693227
1.7430025234082653
1.5303325213237329
1.208363102155031
0.8011072632664817
0.5334110551314648
0.36915792678003595
0.2464390256308182
0.08358291673634863
-0.07755832614630571
-0.28072607085020057
-0.5047711682404672
-0.6694441029601674
-0.8240599227317462
-0.7571439328233902
-0.37266542434508215
0.34917279182396505
0.9986043942843394
1.6568704018881866
1.6998333768620024
1.5651354190064999
1.359618519834962
0.9838228336099815
0.666866849465805
0.3277618653773397
0.2054827116864367
0.08728139587591795
-0.025721654999011037
-0.23429842294671552
-0.49434576027667254
-0.6949013774666177
-0.8796365580179465
-0.9910854663324737
-1.1124818697835523
-1.0412903814848764
-0.49704683925174387
0.1913011203412477
0.8190122988129052
1.1968690304067482
1.2225291936217952
1.0826703587906266
0.7886721775582157
0.4162428252827594
0.15679957782200876
-0.04091211223201309
-0.17416301981542662
-0.2589942838187069
-0.4103439901206083
-0.5285583406951778
-0.7132677375079262
-0.9235702941105179
-1.0604294355591597
-1.2443348872766646
-1.3346283309336429
-1.3763024133725805
-1.1291744294521966
-0.48102841709299315
0.3299610346032053
0.8097984134926356
0.8207194776064481
0.7109074681808999
0.4947604900587496
0.26722015474483596
-0.05461858453920637
-0.32226565244136285
-0.4532996744486829
-0.5272320179511598
-0.6346580887230674
-0.7966720393541226
-1.0000879042702246
-1.179330807983971
-1.2794223960843627
-1.410100003609405
-1.4639098725544695
-1.4966730184941728
-1.3152141267391395
-0.7536937522536005
-0.23884367438856624
0.3268732199768269
0.6254702071498798
0.6415139716000477
0.5084530246785094
0.3102916862652372
-0.015196461472755628
-0.21034089931431726
-0.3270608214562848
-0.41603326896354054
-0.5336283896170088
-0.6638674010229714
-0.8052491743506419
-0.9448050335294691
-1.0501848670743335
-1.1635101048724072
-1.2377486863062273
-1.3090621420610857
-1.3357813559277956
-1.0392046196308444
-0.4324091522222141
0.29168308702370027
0.806019527658715
0.8793501759032545
0.7774175054620643
0.6010414513020084
0.37791633679617914
0.11585809254305791
-0.07588431210156964
-0.2137944620948578
-0.29676815376362276
-0.4724223999093164
-0.5908922397988884
-0.7485333025828165
-0.8643100540171833
-0.9847582664346458
-1.09661661049867
-1.171450291329634
-1.2617048
-1.2617048
-1.021310279895922
-0.47304601773245025
0.1857933757623856
0.8215996310469355
0.8739825924169896
0.7487735560515018
0.6049351750958909
0.31492367675065636
0.08929581034107659
-0.09229317582045896
-0.21504336586336054
-0.2955225534318562
-0.3952304843855877
-0.5320184563330259
-0.7027512582604287
-0.8519957834636724
-0.9862919873009437
-1.0923742098931994
-1.1721665523030185
-1.2613364621615122
-1.3055522859121131
-1.2132804006124347
-0.7626886496084634
0.021931927694366332
0.7228952110118889
1.0022227069701777
0.9475104898545672
0.7524546422928634
0.5106155166335664
0.1976917711041573
0.025682735264332627
-0.1369984721134186
-0.20416892914285673
-0.23323629287302156
-0.35375243940917805
-0.5154837030395992
-0.6863936329654607
-0.8046741956159644
-0.9197884248861687
-1.0364732026037107
-1.094494165468662
-1.0734637327177046
-0.6080770606195509
0.08678569812734914
0.7784991700856536
1.2187396504458377
1.1907870326802028
1.019375776626411
0.795611182902494
0.4539301217285062
0.2313838956783285
0.07676977095694118
0.019863014081885018
-0.040526524170355294
-0.1564120253433077
-0.2780497655401463
-0.4416453333266626
-0.6371888882647807
-0.764619192233376
-0.8695495636568435
-0.8727619520625143
-0.45587558796672817
0.2603272677903723
1.2513545455048576
1.5324820887571242
1.5745309710191897
1.4575195499133182
1.1674095023372533
0.9047341195774005
0.6078002030271826
0.3677236973231503
0.25385070305324997
0.13725322625578706
0.022723103125997846
-0.08647191600887108
-0.2512886009933805
-0.40559293437181443
-0.5972757141452295
-0.6964075525241302
-0.7468593389571836
-0.5547487472700273
0.15246816086783627
0.933419608715552
1.5684821606313821
1.7870567709003091
1.6941549805722442
1.4861556428294875
1.209265033759367
0.8773105438160125
0.5934694802311133
0.4079079995132023
0.2545041212412641
0.11358721360476434
-0.05099261043308054
-0.26318306217755333
-0.42647341804078265
-0.5812366501910198
-0.6931734289972464
-0.8087872078577446
-0.8542124588747616
-0.5577992304027356
0.09976934375120733
0.8509141110755101
1.4263485349783918
1.627501300850109
1.4434518055316785
1.0656002360231391
0.8738157688253387
0.4944709443456432
0.31595906635142035
0.18530051782193563
0.06467430889788645
-0.059506577389908756
-0.23968439971870012
-0.46177540038838305
-0.635436919773169
-0.7895800949273194
-0.9264221312210987
-1.0403361564961384
-1.0756143949922774
-0.814261142782671
-0.1138734635878339
0.8071112901777797
1.4969487773007668
1.641198970957743
1.5068369405806248
1.2569699467406898
0.9323918672766975
0.5977283705236203
0.3382618037764287
0.17300713472860643
0.040307548298686366
-0.0649215244360195
-0.2321485771342654
-0.40875001889966833
-0.6171415682229564
-0.8038554751531983
-0.933913653594426
-1.055140297231703
-1.1152687149072371
-0.8864845869913243
-0.19167661464549957
0.6809626943718933
1.4099516758208468
1.6561301693210113
1.5770567439682828
1.3658829563661259
1.0316786459774976
0.6315380947648237
0.35358889116154113
0.19270368780146047
0.10574303484863479
-0.012061003436160435
-0.2029440012831217
-0.3987238776768218
-0.6096104929648821
-0.7852988951478594
-0.9300457500558872
-1.0399026683840367
-1.1141665118695017
-1.0532130572681602
-0.5524852704128087
0.4371776960868015
1.3017964643436666
1.7304666543604852
1.7303084294331001
1.5499624180092286
1.273113097350267
0.9166315844932507
0.6004171075959421
0.3624171301482387
0.23148244350170627
0.12021642125967501
-0.0194925087523109
-0.20659690430874128
-0.42259972794534895
-0.5793268850550924
-0.7689729724105875
-0.9259731889860999
-1.0425912083512894
-0.9955671241916273
-0.6005983683448048
0.1875989194267803
1.1725631251838144
1.692538851619224
1.797232304191212
1.6480034560500294
1.351803150557309
0.9843635678326336
0.6048458843204148
0.3324761533845616
0.1523251308860729
0.04161880441965915
-0.0816045200606219
-0.2763710648224539
-0.5159220802477802
-0.7345639135885916
-0.9188074765442464
-1.0670149650943808
-1.1595706292061299
-1.211284636928916
-0.9549004949147852
-0.24803715567346318
0.6383893763716203
1.481105116606109
1.8284114585431825
1.799530937399877
1.547160491773051
1.2105226172088548
0.8110435154686383
0.5000665882899078
0.3173580818564419
0.17190186787630826
0.058165043386378464
-0.0789249404705889
-0.2734547748578096
-0.5200261949078572
-0.7109954272562039
-0.8722512296813987
-1.003177102403796
-0.9824080485770242
-0.5265443827192553
0.28047533388567253
1.1741719987339507
1.8109199604507642
1.9118789201680726
1.7245921770221604
1.4040973736922007
1.0523535371737123
0.6745701901449331
0.40631898044918663
0.29455486687736443
0.18490987613759574
0.04798210887892819
-0.13983465548149762
-0.34010523717381835
-0.5294919007846599
-0.7066460584062113
-0.7815718905875009
-0.5288530698566886
0.07078618538477272
0.9885781870477487
1.8204994101989986
2.210972595105766
2.1507331837599444
1.8711499382261314
1.5271364515672243
1.1165120976338598
0.7543022085780569
0.5596766212110457
0.42162691557298126
0.2542066359096834
0.09145342999073328
-0.10189154952766112
-0.3422945645149948
-0.5973699241436385
-0.7105046491189888
-0.484332599442311
0.18276426588900058
1.261116777569352
2.1376975579435684
2.492338638404194
2.4479351804166325
2.2587720940299527
1.8852205697615825
1.4589360945129985
1.0958042856623933
0.794517825705866
0.5631234627786723
0.3553817223128533
0.1491341401470617
-0.06431049423984896
-0.32512608869318593
-0.5583691509121842
-0.7299355784993238
-0.7020998362648698
-0.16833992215256038
0.6818196036837922
1.7714074280587448
2.27287830941096
2.383421948870411
2.2960291732077853
2.0517977507407386
1.660269691501871
1.1849141471822267
0.861824862147652
0.6477451622942916
0.4236298018742093
0.18990192200365588
-0.06506445419817294
-0.3271699509257645
-0.6116753012629378
-0.8105452032615129
-0.9900186644682081
-1.0669883441757024
-0.8515959927771264
-0.13869106335729658
0.9161237140196157
1.647415020775373
1.9722401411323602
1.9633598647287809
1.77622830958806
1.461093233057138
0.9722459702607743
0.5974979902927313
0.3727232987340468
0.11700107071860927
-0.01559622547830114
-0.3492800677702832
-0.6022462450945826
-0.8753042703365372
-1.0987249141060764
-1.2354581790848156
-1.399636521301009
-1.4175470536536738
-1.0510858625379578
-0.24581388195207954
0.7979301608303446
1.418654785953127
1.5940996524786866
1.5415470363655948
1.3592162079519925
0.9929646853244379
0.5638323974851484
0.25755129644811275
0.11972646827751122
-0.045478735933412756
-0.245872067283668
-0.49913584229770425
-0.747054166200757
-0.9844941944025338
-1.1669272627229144
-1.321773875095986
-1.4360044368050227
-1.4252495561862781
-1.1210199726753294
-0.25414218944236033
0.6149976097903125
1.2265488371853595
1.4820284913761266
1.466197929590015
1.2633937982297243
0.9315479420459576
0.581817224978492
0.282118589863657
0.07341919922946481
-0.043592182103502713
-0.26541942331570284
-0.5039229314434344
-0.7256075730066238
-0.9459561170038542
-1.1438047977295227
-1.2869011126050907
-1.421700403772524
-1.5423879726986633
-1.315689916144164
-0.4607396433429424
0.07751271078847377
1.0805519760496451
1.3190847708214122
1.3785976236854294
1.2415476675160646
0.9523289731078162
0.6406791477042267
0.28142267144227145
0.05797566461349095
-0.05123729853375415
-0.22172129568544952
-0.42782644455672825
-0.7039320765247887
-0.8957165844656109
-1.1082531496850088
-1.2751893585290255
-1.4062421278946924
-1.5296318810063627
-1.6099763306584405
-1.514343273836447
-1.0096859931139923
-0.004011158907342605
0.9045031499806974
1.362301319825256
1.3503734575825879
1.238042512411967
1.0280857251556372
0.6982794518153457
0.3613530497140633
0.13312159728300105
0.012918148536688214
-0.09190766552298191
-0.293147843750596
-0.4883468521357256
-0.6948831373602498
-0.9401703991549062
-1.052028718773118
-1.1858197450873103
-1.2985246323209523
-1.3541545577237142
-1.3092221796554855
-0.6960788148674675
0.243790282143703
1.0253121340753641
1.4283301419298642
1.4010430626824528
1.2824037367125039
1.0913007156443917
0.6623507153520137
0.35870789594152697
0.10050987002426212
-0.009437334716048492
-0.11569631658804155
-0.3083413095589609
-0.503338205905454
-0.7600152766510597
-0.9285471792886657
-1.134960546904933
-1.2394750813545554
-1.3260235774970301
-1.4009108742774767
-1.3368270870361676
-0.8295726157927977
0.09338162989594422
0.9266334979499262
1.340402373801607
1.3296511107600597
1.163231039239771
0.9405304260971696
0.5997755381516164
0.2865434917143694
0.03920915761122265
-0.0765277267675872
-0.18484592401192954
-0.3583896138438695
-0.5918743164286272
-0.7610425724282789
-0.9915443021072743
-1.1394663220763448
-1.2920855348194078
-1.3900076792286078
-1.4778929760972075
-1.4372766283996656
-1.0202533932657953
-0.2971800866437595
0.538572326682115
1.1618719774900583
1.251001618430304
1.1605348735421392
0.9429390388147683
0.6414571908734267
0.3218003594763809
