-0.12132312
0.9417807068963988
1.3899117263534593
1.0647019307601207
0.5226034152317269
0.12279333348104762
-0.058028352868896904
-0.26495220639484246
-0.3221161326418525
-0.29260163383066407
-0.18606028273426842
-0.20097329697349486
-0.34564905864701917
-0.4987627009276846
-0.6542707682260066
-0.7944324977480196
-0.9001294946606382
-1.0209686227263264
-1.0876489457535163
-1.110126397844352
-1.0568735264114364
-0.8970221577067284
-0.17780648022987994
0.8458090997155607
1.5302644745210978
1.5834418236949632
1.1056897090237132
0.5679768968810598
0.3131198051606047
0.09290126018237348
0.016115049287064254
0.05442144838618093
0.08000440382892599
0.06300971498304689
-0.0033054561923912366
-0.11270432757996521
-0.31744708017563017
-0.47607386059929435
-0.6042349464772431
-0.7039266293596653
-0.7803237089245636
-0.7940773901347964
-0.7041278297548097
0.08621969130004459
0.9638435358257298
1.5720892601232803
1.6912408942233035
1.2851191195044382
0.9779742791825288
0.728761357455001
0.4992273679516361
0.32181621776349234
0.24449327318918687
0.28546639529554535
0.23743197135265492
0.11685152508219465
-0.03672089929192564
-0.1914851508447717
-0.35141546959810444
-0.4799178572287823
-0.5897766490446782
-0.6614642551832284
-0.7507914473698297
-0.7748440400711936
-0.4497596024226266
0.34189374066742256
1.6069965231456949
1.9448558882413967
1.8004675460576085
1.4573128036441092
1.0886845323321372
0.8589069936873148
0.6140068514701974
0.41848716916527157
0.32685112185224746
0.296644436530045
0.18722751763839587
0.04610273072831067
-0.10161035253946726
-0.2622480334998841
-0.39363235474149166
-0.6586957956587487
-0.7768860810141055
-0.8455891504398289
-0.8935937533409748
-0.9366764931472659
-0.9624908917303846
-0.7783255691219998
-0.3385921440544387
0.7733775251303421
1.4312027597789627
1.497325776624251
1.1040669671820913
0.6796726531741978
0.3931789151644964
0.1648014438596203
-0.0072486694557995675
-0.041058541834911824
0.0043224100816008654
-0.011402302587695954
-0.12381102207628189
-0.31151964609881644
-0.5335440217698117
-0.716118900992755
-0.8593352007300731
-0.9703285393866863
-1.0312906637987689
-1.0410628
-1.032233650463454
-0.8433850296926653
-0.30687556029113483
0.6026344442040895
1.194350023814601
1.2362802568506799
0.9878285777216197
0.5680639546606818
0.2593570343107113
-0.07557034244609953
-0.17797243506133562
-0.15858369773026268
-0.09969314901012015
-0.08862234351294238
-0.19843279364262628
-0.38904534092071025
-0.5961890852485765
-0.8088364413974191
-1.025274519028153
-1.154483765499858
-1.2153603622859188
-1.2672283000000002
-1.2672283000000002
-1.1515774773994139
-0.44246687914433586
0.1691901393938946
1.156578512451272
1.3353096852247281
1.0185048416324811
0.5461373721619525
0.20507222503447975
-0.026333657906633584
-0.19120830974834485
-0.27801069112619264
-0.28717782
-0.2922669376012037
-0.34353475042155657
-0.48590520573910834
-0.6677837698505493
-0.8564704314070057
-1.0034643691848484
-1.1495857606416968
-1.2704615169226945
-1.3329779394642294
-1.3426168
-1.3398997619073876
-1.0961359627440719
-0.5149156174779672
0.4257271675547982
1.1271108303815531
1.133081270064323
0.6552576653794429
0.18821520620765833
-0.09990433261873605
-0.2675269948564679
-0.39278414997320243
-0.39645644081341674
-0.3260082022069186
-0.2941100645358965
-0.4247091804763683
-0.5664775597637681
-0.7378262903413718
-0.915268118381759
-1.1151998514326005
-1.228926919544883
-1.2672283000000002
-1.2672283000000002
-1.2868872133936715
-1.2024990806169131
-0.5839629479130908
0.330842172398243
1.1471122969178493
1.3698795556123682
0.9736082504202688
0.5489107516156615
0.20974154259073313
-0.008334100960313721
-0.1238530721505341
-0.19875887406077394
-0.18070495929488672
-0.1553762175600992
-0.26325956696321456
-0.4150644338458568
-0.562555253717965
-0.711040780175816
-0.8684525108407888
-1.015825857582066
-1.1019224834341506
-1.1418815943507177
-1.1779337117334587
-1.0572168426747146
-0.42915310509930915
0.5047127565515779
1.2852595046424848
1.393615736348811
0.9748850389182069
0.5429759110343244
0.20569291673235832
-0.0014312452154733868
-0.13067069185287747
-0.19980753397633294
-0.21178932
-0.21178932
-0.2822646348369757
-0.4183555542003354
-0.5634394787860052
-0.7073980657885653
-0.8610272845026196
-0.9782851060493221
-1.0569909584001334
-1.1290210232282156
-1.2189987703161564
-1.1433109364367187
-0.6037838553627145
0.3228338460626145
1.1741874943569655
1.3561108269851982
0.9630267543542447
0.4553654661622521
0.1335120995258509
-0.09145189039447685
-0.24517271031283022
-0.2158921185029313
-0.10433773265525823
-0.061012317
-0.12101154625150592
-0.26030445855907486
-0.3793097887599366
-0.47207619963830577
-0.5395829026164233
-0.5778069380069619
-0.58873183
-0.42895065620525874
0.22376345808897175
1.1739405607948052
1.8240034705421784
1.836437919848193
1.430294736183869
0.9272380078881489
0.6037467126658851
0.3643453029327509
0.218878357690896
0.1934917081162784
0.2329174543006288
0.21212772917615724
0.09363399682033205
-0.05309115666425612
-0.24239297255237324
-0.40093524084170323
-0.5125628630006609
-0.5779700822316386
-0.6422148573646743
-0.6149956660456959
-0.10971480815900475
0.8857585289703743
1.692472762565959
2.1157741426305416
1.8933334590861914
1.5401145164386438
1.3112406981246012
1.0657428964241948
0.8587077106102059
0.7054824627497764
0.6284035492526675
0.5926780735001954
0.4787871886340024
0.28348577994556656
0.06888203512345481
-0.07311035092982944
-0.21834521401182455
-0.3225523565110353
-0.4160194765023666
-0.5293578252413118
-0.5557417745734853
-0.1776535777315567
0.8318237639741517
1.7578923185032806
2.210539883230053
2.0547198504008635
1.7232448200364876
1.4351119259675598
1.1217820004542947
0.9501039957048621
0.8080824335729414
0.7230826126957561
0.6928727
0.6090241660662974
0.4552596606389704
0.22448298018694848
0.010251347159615551
-0.11054714105861317
-0.2692798397725824
-0.37838809841389304
-0.46972449202547734
-0.5051250948152806
-0.42784016054917884
0.004592577550051491
1.0832991836421717
1.9308494696061667
2.3558584345182667
2.101277996169279
1.676321777972523
1.352271528075489
1.0736945007561116
0.8776916165457801
0.8555078892365342
0.9051102437847144
0.8879632072340313
0.7642388074665164
0.5612011412737942
0.35256061004616546
0.18782279537195445
0.03340532947123259
-0.049713409177122726
-0.061012317
-0.03687023757044128
0.35226216257209464
1.1657923588970176
2.022968050333868
2.3626797244322355
2.0947120300904576
1.7000368105024601
1.3587860716077476
1.0646070440394273
0.8172924108881878
0.7149517509077534
0.750782949666422
0.6902930346249523
0.5249684663425466
0.28781165498881434
0.042095777842292736
-0.12512293897792792
-0.358385345327416
-0.44125437525508016
-0.5856062797530612
-0.6610689220078401
-0.6406130760498168
-0.022660185958761403
0.9701889128111223
1.6549604133266056
1.8200705616025272
1.524876176532454
1.2923263626009698
0.9951443573656039
0.7680900223773681
0.5189917117912362
0.34762742209772096
0.30284945028654825
0.18291094661420945
0.02993864972207283
-0.16719087936019952
-0.38638030585013206
-0.5759649197537303
-0.8031437999519777
-0.9312968602918014
-1.0190440286393279
-1.0547777799104132
-1.1068682912310048
-0.8745360789352867
-0.1994935937265062
0.8369395959611631
1.4976015484234915
1.5070432388883208
1.1841473811140364
0.8295243350938091
0.5852535394362774
0.3138105562995119
0.05928368632870942
-0.041689023470103045
-0.05965938197799163
-0.13015850344214586
-0.2817636987240383
-0.49019107226293324
-0.7642653877983371
-1.0031172254083363
-1.1619860494988594
-1.3177848409726103
-1.3890872726039152
-1.4155181498400369
-1.3888804641607098
-1.1033327115517033
-0.2685624134294752
0.6852834868650459
1.121176269401868
0.9079566452852919
0.545645089369482
0.21929021077655714
-0.03937555836632317
-0.2593486834527846
-0.282497084811302
-0.2051499308197121
-0.13672908742225987
-0.22966114579945926
-0.4424807784360004
-0.6581222322610446
-0.8019887177346571
-0.9369130622817903
-1.1176330811880886
-1.2550008310360297
-1.3854909424691504
-1.2890370978419419
-0.7317941339018629
0.23368848218785476
1.0741628292656464
1.1578619671516024
0.8258896542137019
0.5904617339664534
0.37715307375885476
0.1772851509922341
-0.0426965134091339
-0.05768810680579797
-0.061012317
-0.06570677177088138
-0.17706432632814906
-0.4405828580269967
-0.5767850960067433
-0.7188967342660035
-0.8751191313908382
-1.0276844959121152
-1.1224551269056333
-1.1838840949700216
-1.240543746865641
-1.1555713990727825
-0.5770362599892217
0.2924761729259111
1.3534786744028442
1.5316226410479392
1.1921215299230434
0.7964751212180224
0.5240589349202112
0.24554004688030565
0.021685569110982628
-0.06293866001029598
-0.10391178456115123
-0.15261451397340728
-0.31254483272674216
-0.5655035735756396
-0.7835561412203998
-0.9909011635765508
-1.1588069857562562
-1.2773546446267692
-1.3426168
-1.3509593996316032
-1.4180053
-1.4017730151954064
-0.9543897326008708
-0.055818143128435874
0.7713200939885692
1.1165512793423378
0.7964342551217337
0.4257601590635133
0.13605404924703143
-0.054219116308402246
-0.18353290688093127
-0.20937292188581733
-0.14909068415294785
-0.06847453661453995
-0.1545223127779458
-0.3571880134841824
-0.491092925305476
-0.6624707089522692
-0.7774262514927665
-0.8772558106925737
-0.9404401461409468
-0.9184659928191119
-0.613259922081805
0.1974906639081359
1.0149272914475245
1.4641131522929647
1.1289916107334677
0.6300620932470882
0.2769531879813812
0.05706741431837174
-0.061012317
-0.061012317
-0.061012317
-0.07021510576589006
-0.14185163522767721
-0.41743769646880274
-0.5837247598279238
-0.7003395580614262
-0.7747799316707115
-0.8734804339605349
-0.9783597344541307
-1.0472699369055571
-0.9897898081984564
-0.5206539317801451
0.5289845471758632
1.436487433590034
1.689677133612476
1.3418716303485385
0.9559620409023253
0.645293621000536
0.3765230706765323
0.12793457896579774
0.0143761839999999
0.0143761839999999
0.0017851303083171975
-0.06674364332265442
-0.19317977234426967
-0.3856560699171267
-0.5572180571667917
-0.7181648271026294
-0.8311008214857432
-0.8945962222719872
-0.9853768314765133
-0.9846603822109866
-0.6561857290618271
0.3055713955653516
1.1768495323196295
1.5753717001455234
1.4423165479845759
1.052954878957779
0.8427803636886343
0.5251765368381539
0.3035247681331039
0.1888512350602878
0.16515319
0.13723392343988305
0.05145628069113187
-0.0919189356600956
-0.3054569160899569
-0.4453383038039386
-0.6142432680870035
-0.7037807677831572
-0.8222403852209347
-0.9341034189541246
-1.0013082803496296
-0.6717255109113834
0.07736403062482311
0.8655941859789373
1.4488239052053251
1.357568437021911
0.9505296451232457
0.5643998748297948
0.2350140778780485
0.057430077103115484
0.023821510167296753
0.06128550276156232
0.14834857974932728
0.0890477771168901
-0.07801238108356934
-0.2510368188583645
-0.43442238994904664
-0.5866974221228866
-0.6880872838707522
-0.7911420808591968
-0.7742114416707111
-0.29609449663742
0.47364976213979276
1.5922531390368426
1.8447456822812351
1.6380255420824108
1.235118322856687
0.942766198036434
0.626917557994603
0.4180843385623418
0.39131869
0.3822789179727685
0.3144175103658913
0.18405751869459136
0.04427460532162737
-0.11190239219867248
-0.29075467379916387
-0.4936055363283739
-0.6520124503951644
-0.7932537013579875
-0.8441669846659076
-0.5231468785568697
0.3597554215734635
1.3680489641731357
2.0151623813903727
1.8410826135614935
1.456874776524868
1.1424277488205836
0.8818630357083603
0.659240325030624
0.4900095705873989
0.3871657866078597
0.3175751447262456
0.1812738947237369
0.042056573379465674
-0.10980593257326762
-0.3618032744554269
-0.608974073297532
-0.824278440019417
-1.026825561228194
-1.1477792806341351
-1.1554134679364043
-0.6956081283454796
0.2270583902223115
1.1900958156850052
1.7020128922973838
1.5272717328664076
1.134774955457805
0.7768041383195993
0.47925884040562283
0.22695553716457562
0.09787853636139128
0.12384418019383552
0.19070556184278933
0.17402356216209072
0.04695341413659509
-0.13294571139595962
-0.36733590704507013
-0.5609274718586893
-0.7125131842802854
-0.8292098629814013
-0.9266129920897762
-0.5237358413424553
0.44433286361780533
1.243864554068378
1.8277934105892455
1.6269953778107251
1.0855039899541377
0.6790229782790621
0.3339891301009372
0.10895779059047382
0.029453885
0.054296364066760125
0.07950854594349356
0.035148360261361214
-0.14876851190378787
-0.42199351949479535
-0.6513367486642715
-0.8993768212438418
-1.0994513760963123
-1.3101211837521418
-1.4323971323588052
-1.35995542673915
-0.7509102472668087
0.22326836414455695
1.0907227520923533
1.50135996187128
1.2285075059144983
0.8903459359286292
0.6046762055231519
0.285381456564669
0.02072046721780374
-0.10611672340505676
-0.13640082
-0.1729306791495998
-0.31093754311854715
-0.5562130822919379
-0.8030479212333808
-1.035917799448282
-1.2462795400809847
-1.4034662434704446
-1.5207824480194088
-1.61287646936293
-1.5089752087661574
-0.956285860827157
0.19860805431674117
1.0990704997596268
1.4246613066737974
1.2181892944725439
0.8477099749091018
0.4634288076380219
0.12458300786709026
-0.08043244861480975
-0.14554959975834605
-0.1430708461504384
-0.17448252300478115
-0.3011036260813008
-0.4875032652182507
-0.6940000756648046
-0.930662981873109
-1.091267041988781
-1.2113961194736858
-1.293945453997353
-1.335244025216632
-0.9932705227901999
-0.20173924736788945
0.812024001421554
1.5332946505667775
1.583231051579296
1.2630027541612214
0.8929685335046764
0.5617928142050862
0.3287454924447835
0.21093100133066614
0.2004863764279152
0.2559298504469815
0.19485166225149148
0.034642316974181325
-0.18510047622278647
-0.40297411199317124
-0.6057835985530358
-0.8020462249830034
-0.9828145260253541
-0.9368923850600006
-0.3493464172689189
0.7018738662876669
1.676636297573371
1.9593995
1.6790635747172686
1.2573364633646167
0.8507032811009301
0.5483768887116811
0.2843418366789935
0.17462807158908839
0.16515319
0.13439217710964482
0.010748645356140757
-0.16106061357930343
-0.40038897318199795
-0.6485306882523509
-0.8609597927581489
-1.0354579724895685
-1.1942907146441877
-1.1765040086683876
-0.5749943602115702
0.5865670808270386
1.5702337829158268
1.931001906405148
1.6959750869893244
1.3245297465338863
0.9898704107816299
0.6750469418605239
0.429054439392383
0.23999967095559216
0.17220582154617933
0.13346058729277627
0.01130135293022115
-0.1350850260172783
-0.3436705241046022
-0.6089200253351347
-0.8160742205558897
-1.0022252227672195
-1.1865263182852863
-1.3475924267916712
-1.366657449911976
-0.7422872468820457
0.2717380300785327
1.2005166444073803
1.5859001721969512
1.486486799418288
1.0443068265164182
0.6460621084238348
0.26176431305765224
-0.0008403928274268724
-0.061012317
-0.024976995972673242
0.00704798594717608
-0.04084059205647826
-0.19577327882574477
-0.41604241034451095
-0.6645735909485908
-0.8326056951498334
-0.9606882124455742
-1.1220720857164859
-1.2073776634234186
-0.7420792068901865
0.27164987663808515
1.2011020999343636
1.6916622409460231
1.5448459896862743
1.0817551321333874
0.7120009383997807
0.29575375102514107
0.0035771435882876734
-0.061012317
-0.061012317
-0.061012317
-0.0914450971918144
-0.2920460001004569
-0.4983517796123512
-0.7284869674219923
-0.9663625093183371
-1.169109371123267
-1.3184469695054886
-1.4697567339120645
-1.1181956209043125
-0.16112997678158125
1.2479945164707142
1.9865454878939328
1.811435495731987
1.383987487142014
1.0382857051906529
0.582909532427448
0.20109346863368138
0.014361756990205782
-0.05027208124355266
-0.061012317
-0.14259917597808164
-0.3414092323116995
-0.5685998171131154
-0.708323325165098
-0.8844167197774536
-1.1059071520567851
-1.2640844355464216
-1.3986989347113616
-1.3643058122069767
-0.8777818729493054
0.09901747213206546
1.4154393259004547
1.7629608203197016
1.586705915731332
1.271150039566022
0.7964023912943117
0.5117486527775761
0.13794831532181284
-0.02375330738451123
-0.05903783212978467
-0.07827234360803823
-0.20683219824863705
-0.3644028913567653
-0.5406830350985484
-0.7528350947253376
-0.9684933278995697
-1.1594533790609738
-1.3334816288832863
-1.478407712131642
-1.3535854713496673
-0.5244167244217548
0.36630332066006055
1.1901419251828447
1.4632146767989753
1.2681331354013985
0.8150822405936887
0.41097744215872056
0.0708315727630936
-0.029132373994439603
-0.060883341740032654
-0.030900154151269593
-0.05950445739902555
-0.0987671745215094
-0.28434732278506325
-0.4993793655050414
-0.7012861537233571
-0.9149551791782351
-1.107362585285127
-1.1369318199696719
-0.6416340319234553
0.32054196347666963
1.6803357864268924
1.9182024016539856
1.6090206879326312
1.2056411408155596
0.821335267911464
0.46603380504735875
0.19608686007546197
0.04448186814879651
0.013863523228321128
-0.042105093047233325
-0.13391933675354928
-0.29078917024301143
-0.5126349395121298
-0.6760027987449975
-0.8937627997043689
-1.0476764640700222
-1.1156426314865036
-0.48060547875612747
0.6307936540271576
1.6915275225627213
2.144693319767299
1.909556328734163
1.5918636123075043
1.2268673863362922
0.9493190633333066
0.6538564808437737
0.4804010214904792
0.4524167138167066
0.340041449988168
0.1891142706691924
-0.04365102808624711
-0.23270321860027596
-0.5139945180026191
-0.729873472459755
-0.9290862692888593
-0.9456945532756896
-0.41661241454332987
0.5797181122250337
1.653809499053591
2.169832105065141
1.9465048099525755
1.630065790797341
1.2933888602706176
0.9235762445697475
0.708673286143892
0.6067064592472962
0.5424489077785362
0.4603710064863403
0.28267330664113255
0.05186511894439052
-0.125885864876598
-0.31827798477378133
-0.49332320765493287
-0.6170375033363966
-0.42191418113499113
0.2876679250725023
1.477723607812948
2.156638107196072
2.1570678234818845
1.8070610725606393
1.4596251546631074
1.0490886689924044
0.693543740251118
0.5530450550148807
0.48029574993647733
0.4422646151042916
0.2539423387393216
0.027376032962234214
-0.2085729388990905
-0.409022928132127
-0.6442818913563594
-0.8140253553915769
-0.89255385691895
-0.4959535209938837
0.45020621328933424
1.5130441124246354
2.079471742685462
1.9832792014401293
1.6665411865656243
1.3340861443030505
0.9449950434718353
0.6279055637900695
0.41390240055485367
0.2690320119322013
0.15254964734768794
0.019433068255770236
-0.20232658015506028
-0.5734084681113844
-0.7723753270607857
-1.0041015668488886
-1.227117461825105
-1.3172337339380127
-1.2726085970009227
-0.8172231060894927
0.086585316274231
1.257184703747528
1.895595883510539
1.863430651539807
1.531714223992154
1.1604903310946422
0.8165398674211267
0.4669833165476146
0.22145668176224897
0.057630176338665046
-0.0530168849951871
-0.11139475094687704
-0.35176177731417707
-0.6721861309021896
-0.9606475027491469
-1.2132613989952439
-1.4220278531192854
-1.5531149112190075
-1.6362785307879146
-1.6888079374246812
-1.2523912853928123
0.4442181100917816
0.7960969660337616
1.1479758219757414
1.2874225622930788
1.0489008594840041
0.6072068108699831
0.3515957409873566
0.10598310238223907
-0.05719200969021067
-0.036736162917356444
0.002673106185449501
-0.05407374142626778
-0.15799546963597189
-0.3692453946061882
-0.5952647587247679
-0.7933088256485461
-1.012548572111084
-1.1150262745952662
-1.1552635879173836
-0.9004112723847371
-0.19265828404803317
0.8966908736403477
1.6077398206260802
1.5949984694642314
1.302922444586471
0.929065745761493
0.605740748104755
0.35699399241165175
0.16515319
0.16515319
0.11508407936028117
-0.01069990037568673
-0.2006134091040659
-0.4816074204642812
-0.7348688475389915
-0.9399793606910659
-1.0981244020938183
-1.2377289967527791
-1.3990640385252477
-1.3730328441247919
-0.8533043077144715
0.4451314366750089
1.2554243025451692
1.7156777903250644
1.538965818835537
1.229180930645711
0.9532057526812572
0.6488559200508354
0.32780700452571804
0.08683364915392866
-0.006422379945548555
-0.07243524554151881
-0.15517108689970235
-0.3249034421894215
-0.5759772092343234
-0.8436029142609891
-1.0835007460640178
-1.3210334121774245
-1.4821798413857055
-1.5556080681153213
-1.645220921863445
-1.6922451412731927
-1.4721114520240173
-0.6249722710446332
0.6861007037148741
1.581524939327243
1.5884794522694103
1.2523018904204288
0.8691376464353042
0.5694658241612817
0.19038752844478452
-0.010231857456225115
-0.07230563044049805
-0.10815240429378241
-0.20658890895036525
-0.40564897225726493
-0.6489658378716517
-0.9149529561860672
-1.128554837700873
-1.3263795827765323
-1.4897923964835733
-1.5832666925101246
-1.706156797885072
-1.7308135345193878
-1.465109548386689
-0.4246298885493014
0.5866631361668635
1.3004034713810189
1.3596952255251298
1.0477580186272784
0.6326567419833508
0.322299857022312
0.056548500928381096
-0.1023422648626728
-0.12355364718986082
-0.1000464042920503
-0.1352313857386913
-0.2992698805780234
-0.576657928526709
-0.8449001487373912
-1.0733588132469805
-1.2998855062787849
-1.492624710982382
-1.6079087320346193
-1.6356754571087835
-1.2639427057729269
-0.3167386911646688
0.7544611257808937
1.5244278425487063
1.609999643470337
1.3008009914334868
0.9061480427371831
0.5322201005486287
0.18843117626037706
0.004600878549477695
-0.02408369550269565
-0.007493440927311221
-0.04352936490073397
-0.17918577721494416
-0.41047903348902226
-0.6672510975305547
-0.9151463622259559
-1.1293058070574753
-1.3217785982268009
-1.4956293741094222
-1.6194429050178565
-1.7246197585750993
-1.6063546699252802
-1.0548106540681341
0.01736322825163142
1.1767531254026735
1.5436850497651224
1.379390992630388
0.9771326589044564
0.5917286910708486
0.24188486677086835
-0.02269582443665019
-0.21178932
-0.2582989283184779
-0.31364645690125087
-0.4017662290714295
-0.5958399232685002
-0.849262782952571
-1.0460021100101333
-1.2834481958068837
-1.4881908889197972
-1.6694927227402563
-1.8343783061146313
-1.8943446797012868
-1.9692303740998478
-2.0005139458561305
-1.5186314623139296
-0.5689823230240263
0.675475427794824
1.2943228463781133
1.255382746369343
0.7902364117672005
0.3029523637386776
-0.054175929999067216
-0.3153756614857375
-0.4247808992792176
-0.4046314493557584
-0.3405062002216981
-0.3893614292021661
-0.5135355409236501
-0.695630467372764
-0.9112348485425036
-1.1038702651957228
-1.2581456791567123
-1.4001876417159471
-1.5093753217581187
-1.4846900105038272
-0.9648051329532674
0.057636614969674205
1.1904516905415643
1.7663633994724484
1.6318274499715444
1.2226518630618817
0.814733393198236
0.4311498945878781
0.13122949848587712
-0.0491924987345374
-0.061012317
-0.061012317
-0.08851887719670579
-0.24189756888641473
-0.4776810115190656
-0.7127244738546265
-0.8920334179069324
-1.0879916540884333
-1.2772603141663301
-1.3999787652712377
-1.453185765444982
-1.0822657686752122
-0.11013472532380997
1.1537321399171665
1.8589872568164294
1.8762056748829599
1.506985296862496
1.1027915734472709
0.7170669342534399
0.3627727799237535
0.08900418251651793
0.02757521282249658
0.0143761839999999
-0.013401395958311139
-0.14885612497144202
-0.35859917621545256
-0.5494015220933797
-0.7690231518184176
-1.0182895542252666
-1.1900590633001427
-1.309017862659056
-1.431732296208081
-1.3254270661904202
-0.5178964178133595
0.6012102693462265
1.5828292229976806
1.9700597556321477
1.7294343107034122
1.269724414156372
0.8188482935140818
0.44171619092420844
0.2433119783747421
0.18333846772578005
0.2274483907028076
0.2942351157959249
0.22792903345874999
0.08097121659468244
-0.06503034944843221
-0.1978560801545741
-0.34264008833102994
-0.5663277019507852
-0.7439186907166354
-0.9037744617719076
-0.7712041921807483
-0.007048765477050356
1.1713250716393244
2.167186272420048
2.4117305
2.089160534557
1.6492715725243452
1.208110441015187
0.8265199381880299
0.5587132893808575
0.47405181012726594
0.46670719
0.43786701541743384
0.2736563790657044
0.04456683508791601
-0.16355954247912666
-0.3762505912603592
-0.6788334891740315
-0.8763318383153901
-1.048155902379263
-1.2090081341185166
-1.2252468917912196
-0.698055911940114
0.43550638799948493
1.684910524968314
2.388444161620781
2.2650266005939947
1.8551413862215456
1.402777077997481
1.0058864361130555
0.6694814958430025
0.396316948606902
0.284538679891741
0.14941384151690407
0.024993312893167016
-0.1441613450048069
-0.4001800795779533
-0.6995909508151428
-0.9675266966640487
-1.1688010516728895
-1.4177979213260419
-1.5543165921581643
-1.6312949554276857
-1.6316378719357059
-1.1172149932358
0.11105495479433602
1.3846865946324374
1.8803919172280885
1.6103532704058008
1.1687928501004912
0.6485302930764555
0.27878603590321016
0.01359675040403241
-0.05599692940343948
-0.02912113088660953
0.009039288822485794
-0.053322335926892214
-0.16924864388221314
-0.370533649613654
-0.6710080743586992
-0.839590657734285
-0.9889392594862823
-1.1138961091562578
-1.2293075438386363
-1.1983345473890377
-0.5368454388962
0.8391945307139346
2.0354794003819654
2.3625389297450172
1.9952316262943928
1.4872319339660263
0.9946814333781648
0.6189306546156048
0.3811429370482488
0.2672554914372911
0.29604138511050054
0.26221288562770745
0.08144351819560164
-0.13060998852545963
-0.3659514638433343
-0.5684826560506122
-0.8036973933393177
-1.072832081691477
-1.2313843094663586
-1.37562866839054
-1.3734454241407843
-0.6714276972572473
0.38865397096264165
1.5550624265856556
2.199395965677435
1.9948737118025108
1.4277474047599483
1.0312464915650255
0.6285076646036345
0.24908818701536384
-0.02799770254083775
-0.0593412396247048
-0.061012317
-0.11434647123191635
-0.36390523693309573
-0.6107446615903381
-0.9285632712493741
-1.1214054039758796
-1.357723350047704
-1.4943020827550533
-1.5875598154539776
-1.642821942134609
-1.1082404506414334
0.15587470113713642
1.4440250819657041
2.04603336577941
1.8144252205548574
1.3767977741964736
1.070024051234477
0.5724950323610195
0.1353902539556145
-0.061012317
-0.061012317
-0.06346006486560947
-0.14972463694385166
-0.3316226368233369
-0.5652993145246256
-0.7425870545519607
-0.8957444186325488
-1.118586075172759
-1.2523507236776896
-1.250707837515437
-0.8186218477153748
0.35271923963730084
1.7102967952684553
2.130027414146416
1.941512634076801
1.4977841658574733
1.0886464509417741
0.7635830021385278
0.4959419566317966
0.46670719
0.46613826854289075
0.44217570613492696
0.31242937670069065
0.11066282238153821
-0.15994639013836118
-0.35884148781708997
-0.5656728318456273
-0.7796701460370856
-0.8296221348370649
-0.35035199575553905
0.7889694799950959
1.9417377592527008
2.656264255386252
2.5538527956422743
2.1744123187982654
1.787315759676243
1.4388497054976006
1.1203844536814584
0.909293233083855
0.808341949020044
0.7407700841492272
0.5523761887327341
0.2026961461304551
0.04912372108051527
-0.16977310491327977
-0.47867164957469494
-0.6527613540322668
-0.8145878073588808
-0.9148760936255235
-0.6848570790226888
0.1879733155073338
1.4603034375861246
2.2246397467640997
2.4253246231078256
2.2354111016525033
1.8112707385465938
1.481455644048365
1.0570408264814815
0.7857090945045057
0.5983425492235116
0.45633467894023744
0.26179723598390003
0.032302249662834404
-0.18201891372611373
-0.4968093633590565
-0.8494038556862042
-1.0341471384378047
-1.1889823097454284
-1.3408786883958703
-1.4517319696739648
-1.2010019788525084
-0.2977815957175225
0.8696761664704327
1.7399219629480036
1.878251648563225
1.5145412487900007
1.0693959793880377
0.7289679654206156
0.3465939948425978
0.08936583080334702
0.012101566934425044
-0.007652720520651531
-0.0844914428377042
-0.24574757610337894
-0.5003922110879626
-0.7745772639828967
-1.04831673350097
-1.2349569741571202
-1.3823654257116282
-1.4714638233728903
-1.3202768669798426
-0.5487135671742346
0.5642733482930987
1.4348449654403113
1.619075190087166
1.2401681027365243
0.7996634877528809
0.44839670807943066
0.09647882378608613
-0.0854442064616233
-0.13640082
-0.14877773654246051
-0.226095275509012
-0.43704151115607115
-0.6911252854003019
-1.0028534036425034
-1.2603308784040443
-1.4620715128736357
-1.6387311572182883
-1.739236958478592
-1.80286782207493
-1.4528215848890647
-0.4806228470303498
0.5578368227040478
1.3958962558888057
1.4306546848034534
1.0342596056712832
0.6274940343818293
0.2869787811846511
0.000654822498849553
-0.20803535922689156
-0.44424869268262557
-0.47423187947595336
-0.563437261420016
-0.7848071991651349
-0.955881336467744
-1.2440152777286695
-1.462685445113159
-1.659540074434355
-1.8037952644036206
-1.9391242877773376
-2.016284169770472
-2.062004900591657
-1.9111847138094862
-1.228374611850978
-0.09751228414338337
0.9632911078573391
1.3569325841891213
1.0765421780756377
0.576166647418671
0.1657980497875741
-0.21968817306388025
-0.5256694844382058
-0.6494209924796672
-0.7254706167072534
-0.7826678787608315
-0.9099100185457774
-1.0759209761971928
-1.308538899296676
-1.497391729822915
-1.6651295146181828
-1.7899919146936583
-1.8584461193289188
-1.9190622290090305
-1.9727718655140336
-1.882304473273056
-1.2609274170828617
-0.10579460928503231
0.8764060794992252
1.2567988518532829
0.9747941217128198
0.4887950532991273
0.0871687446863819
-0.21442365405887154
-0.4010131857793264
-0.42154770739118064
-0.35189604069452474
-0.30499463271025173
-0.40484095303184775
-0.5937920695311355
-0.7595734714513274
-0.9436373122767675
-1.145089908102663
-1.2861307385646834
-1.3815227602310496
-1.2083659736876022
-0.4398508352524956
0.7226112781162173
1.692901713762237
1.9188284322611702
1.5531299715259472
0.9930600739452443
0.5506767559828065
0.17573223607022292
-0.06023993949408661
-0.11437427422163673
-0.13640082
-0.17351434544319794
-0.31739905327845946
-0.5855455763381419
-0.833978899454278
-1.0181487869198678
-1.2512894063675277
-1.4311170174136991
-1.562626121879862
-1.5830370359519008
-1.2257906761839468
-0.40988093336839326
0.702072314609238
1.6842005176155048
1.7859666512168635
1.3699630413061503
0.89674925334085
0.48807825995322107
0.1494650505433145
-0.046241057609579264
-0.12789976172061654
-0.16728823251097066
-0.287454704217019
-0.4848048477611863
-0.7121927117752814
-0.9367115429391428
-1.1701235897409998
-1.3819449515459965
-1.5226886528333266
-1.6614705511278096
-1.7116931964612592
-1.4517971023909246
-0.5564410045176651
0.7346816747938356
1.6381680426499088
1.6108295196041507
1.1336125267626087
0.6414030498700226
0.21333657828088395
-0.07878431799526142
-0.20096343588521964
-0.2545549422581289
-0.24956633032596065
-0.28403585441359436
-0.3910736683597327
-0.5772445283576723
-0.7754240685632445
-0.9244554474412965
-1.0797038326847606
-1.2094055354527997
-1.226974313224386
-1.038045224733221
-0.25710734114177436
0.807211505037281
2.0459649522898515
1.8207049504353205
1.4141515446368185
0.7948056373126866
0.38313738772976114
0.08929888860614506
-0.061012317
-0.061012317
-0.061012317
-0.11104712619435791
-0.2393987948660028
-0.43718806843338964
-0.675246903405508
-0.894314483888661
-1.0882923705466214
-1.2544284129313557
-1.243059435378143
-0.6145932886199803
0.5345607734492939
1.6365059813961058
2.105709476887288
1.939302203812482
1.5151470024113696
1.0888046988566007
0.5861667693581363
0.20533063464173856
0.035763664484284016
-0.042312389361190014
-0.061012317
-0.11636175380720623
-0.24487531441552562
-0.47685600657386285
-0.7227989612619914
-0.9431255842364001
-1.1453679882483623
-1.3094002286611965
-1.3259081240488153
-0.8689910129281002
0.17538212209323867
1.461521207997472
2.0667813237700132
1.8116879416915914
1.3115342136880013
0.8018431365849202
0.27347667855031377
-0.012359885080922561
-0.11409103793285227
-0.13640082
-0.14637473963851408
-0.2546289947152931
-0.48048124326381403
-0.7017246764123746
-0.8869714033304779
-1.0456632924531533
-1.212509569426824
-1.3619087896348847
-1.3726434371323493
-0.8637246130999852
0.1520213818142938
1.3144990193097144
2.0563050924534556
1.9501960257837687
1.4740407978382501
0.9854823527845934
0.5535417531391107
0.16296814204645516
-0.022866021990462226
-0.0008480846445258414
-0.021004774933906564
-0.09216548415369577
-0.24710567225782176
-0.47983082268743216
-0.7695581052479272
-0.9984937938496571
-1.2037718257829924
-1.3546305394716507
-1.1588016054028025
-0.3680674481822366
0.9133047746381088
1.9385443990231321
2.2029524654486767
1.8235642445569855
1.2815030768038669
0.727564062933224
0.3503566036964295
0.06098910942159966
-0.0016243131502613768
-0.01453872750100196
-0.0613587811270658
-0.18752418960468292
-0.43152375869659065
-0.7037725917811225
-0.9306606200571801
-1.1243412778323534
-1.2879190676961172
-1.4052308408473209
-1.151371561560343
-0.21060586228524392
1.0719918951731233
2.089095530190536
2.2619941918718465
1.941447924919687
1.3917907396908822
0.9647841869204903
0.6019073799192209
0.2972949886614503
0.17731259002303346
0.15527473653508128
0.10221656383176729
0.0047757584642915685
-0.20950867551652913
-0.5262512751863494
-0.813733414401528
-1.0290723574665095
-1.243781169446254
-1.3730465806570984
-1.213431811547286
-0.4348871604771012
0.7291532664571987
1.7953829621842186
2.121641641498581
1.7832038800445906
1.2232084442144338
0.7330817055322307
0.3537026025510584
0.16313508196509865
0.15907472245250617
0.2281450341968959
0.20353401835292315
0.06289051567500481
-0.08624057127417624
-0.29026040011611665
-0.5003542054822114
-0.752568485660294
-0.9738547081010906
-1.0630650556952939
-0.5299541820584414
0.43951999891015814
1.8778020747135158
2.4941933981293114
2.2990031758652507
1.808171052304502
1.2751549776961444
0.84692927451181
0.46278207460622944
0.3233340403783907
0.31593019
0.282274588195495
0.08753879917364749
-0.12250217742335402
-0.43159098289115866
-0.7218800464064268
-1.017222500187752
-1.2202243494494198
-1.4521298078093314
-1.5565754682457609
-1.1829601970321681
-0.048951339835472174
1.2480865397307916
2.050561687563458
2.053627671763005
1.590124842938548
1.0317507669168455
0.6134932522450041
0.2620127043941474
-0.014176191228462892
-0.05784654703948912
-0.061012317
-0.1744038820870321
-0.33061486901318593
-0.4980571974339236
-0.7995012158444392
-1.1442673826650038
-1.385159694466356
-1.6048275940751184
-1.7559172737293018
-1.8622863635780216
-1.463795683931397
-0.329235784231688
1.0001038547016163
1.8159515723818882
1.6080634605338044
1.090386205198621
0.5685369492655505
0.10018906995010568
-0.13124872686756706
-0.3590795477811467
-0.36256632
-0.36256632
-0.39992165628677
-0.5833717156786054
-0.7989492084612513
-0.9849341044521237
-1.2250823181510486
-1.4422557979044575
-1.6065112731020115
-1.6137071902065312
-1.1043216785347734
0.23313473847064142
1.5444018114499687
1.8466323343267128
1.4217742636920017
0.8886225851592567
0.3997202589148665
0.09428185947567097
-0.15649224456590874
-0.20815558180979665
-0.14083650321614782
-0.17560212703005187
-0.29812801468276195
-0.5214007911246074
-0.7328639279211188
-1.018438937005941
-1.2460424340293332
-1.4448783043429805
-1.591034683310191
-1.5796794898103739
-0.7744710421470894
0.4153153353835682
1.8095525976532618
2.0760587090162157
1.7122427439311996
1.1143138013606062
0.7733830082325012
0.2826101630077624
-0.004844747641405875
-0.061012317
-0.061012317
-0.12901094028591203
-0.28238368232834526
-0.49544331479172354
-0.772510907434894
-0.9829120409574523
-1.2477266982028514
-1.3824302597638025
-1.5299342255423758
-1.6253816210802297
-1.4501707281371623
-0.3832430174162236
0.772032619270926
1.7540481961000765
1.9142049052557348
1.4924264475308155
0.9174623355006578
0.5637294531307823
0.12726052091351536
-0.07037662639806126
-0.13640082
-0.13997336712616212
-0.19304614681559476
-0.3706583595014042
-0.6340812142012191
-0.8786450159038844
-1.0807525093908534
-1.3070649889164665
-1.5079936858124936
-1.6137421653129618
-1.695076066951618
-1.3877921288271216
-0.539413397845466
0.8232168677040139
1.8288924129468342
1.8368166023651873
1.3085186810226108
0.8715543104782983
0.4275708535607059
0.13837758746841772
-0.044183232182426806
-0.006333412304656838
0.08778485563303919
0.05351881949074574
-0.07097973444120066
-0.2226938325803824
-0.4902594150499178
-0.7788124182190802
-1.0226334662190026
-1.1578983592001875
-1.1777925265664588
-0.6956064935734692
0.34926879717511716
1.6167326866914855
2.3488343225085573
2.133832893541665
1.6262631622200203
1.1120461647062707
0.6499416272811797
0.281367810746505
-0.027351989975605263
-0.03331247806886227
-0.003016345303598813
-0.11054749905977726
-0.3032818724053095
-0.5644767450048139
-0.9124372261723038
-1.1849915349546838
-1.4103051567899239
-1.5998161335997152
-1.7446294636759279
-1.7518020886440409
-1.132310319021161
0.06020039389203308
1.398529922587036
2.0720308806430245
1.9380551246293494
1.4346821633960412
1.029715525051
0.6601842536188374
0.312777438117766
0.10151707573314535
0.089764686
0.07355794042606557
-0.015249948068318891
-0.14717597314068645
-0.40228704680583366
-0.6461426219663315
-0.9844253564844759
-1.2593804854827404
-1.4601805765142934
-1.6161132160526306
-1.7102824165084782
-1.4839847731215816
-0.658592398430311
0.42714427375009656
1.5937154827107074
2.0052860007159956
1.5987928745354427
1.067356532753025
0.5878295262930902
0.2719315518255221
0.095449847505714
0.045717577038834584
0.11419189821783948
0.15509464170847753
0.09397474319091595
-0.07216228634013393
-0.3550063060396004
-0.5673737730734245
-0.7530498269493037
-0.9870531154993724
-1.0985941730198834
-0.8564886840477177
0.2374480631214432
1.4609258631505062
2.1775416104044014
2.1337490484080233
1.652142347572201
1.152764688578316
0.6821449084607499
0.32921677228905155
0.17534806044295698
0.16515319
0.14038609407542982
0.040355729862536126
-0.17716556022736435
-0.4619366260358331
-0.7391687653928279
-0.9971073141796074
-1.2015624145806
-1.38229284487607
-1.4796853613781096
-1.1934304760781649
-0.31131389164444506
0.9041212111422503
1.9880280924333973
2.179782034683193
1.7739334187705713
1.2880500939497805
0.8281228450913806
0.4372966976227006
0.16499457293585693
0.04453435251769715
-0.005667269227938403
-0.06818052270273289
-0.22382398310558282
-0.5173770794271018
-0.7947361682194343
-1.0376643015350584
-1.2840490350193423
-1.4605788859428204
-1.6039389192498825
-1.6880746065837975
-1.3170025956792926
-0.37674521195731786
0.7875314899693646
1.691343575139357
1.8121254439691257
1.3932026025873512
0.9126767033293424
0.4875338319930155
0.1272841069660188
-0.04524326606401951
-0.061012317
-0.061012317
-0.11451395890138863
-0.2733056112255631
-0.5052202800064243
-0.7413378816963778
-0.9316428257941465
-1.0774637156494877
-1.223789317524614
-1.2606922800163454
-0.8439588214623753
0.0945699017376605
1.1718591644024923
1.9432370720511294
1.8751781176943705
1.4340810817147405
0.9255039236545681
0.4518881702599745
0.1380276704685791
0.0143761839999999
0.0354597875122043
0.020437506861274442
-0.0858373423721176
-0.2900107329194063
-0.5547800993614214
-0.7895633970159606
-0.9886469325820411
-1.1852313853074716
-1.3858651730921236
-1.41343666432894
-0.9846509071755151
0.11194221462546294
1.3465884702774247
2.065172487878548
2.092082024484637
1.6718086094910565
1.24466587371086
0.8027519649136869
0.45025160132921804
0.23271430750884475
0.12522891039233222
0.06665151381264657
-0.02771891965637946
-0.243700065956234
-0.5252312054031563
-0.791953838338745
-1.044284580712001
-1.256535751898468
-1.4445151728254155
-1.5849884508277763
-1.59023177879039
-1.1020405365487678
0.12044561397895448
1.374056869935024
1.9254178064818166
1.7930639515636064
1.322222920243474
0.9147529829193906
0.5152006029332494
0.18309614465207974
-0.039148268443087414
-0.08232505563928795
-0.15233547649446233
-0.28263267313953633
-0.4940244902049702
-0.7642055266418882
-1.0331975549601382
-1.270102515124193
-1.4552812885128557
-1.584248293182022
-1.7032551875152255
-1.7070101549844356
-1.25239652864589
-0.22415008974660133
0.9831102756080299
1.62895382889969
1.4416244924782666
0.9697455781457198
0.5149860062942838
0.16508162111857158
-0.05921366347826273
-0.09169425389016693
-0.061012317
-0.08765342796668714
-0.19036322232883998
-0.38921290028272787
-0.6475278173122094
-0.9040113932254172
-1.1026409372876318
-1.2541916856280977
-1.3593010152853555
-1.2613935125028215
-0.6777342045557381
0.46219678255436725
1.5683823170442897
2.0036195420780754
1.8040548663352354
1.3780144110534707
0.9405244508001457
0.5052975977902046
0.2278658982569102
0.1019584780348773
0.06970117734598555
0.037443876657079725
0.005186575968187959
