1.9461658
1.2148016598898734
0.344525651972286
0.09334160214890524
-0.017208521
-0.017208521
-0.023856384476268557
-0.15565017838898004
-0.41789183602779006
-0.7270418894541475
-0.9733322002389619
-0.9970630801326057
-0.38452327782922074
1.0840754606085217
2.5708708918738497
3.1379185664426066
2.9051688358754566
2.1822808916632455
1.411154703362052
0.6421414729880379
0.06930335552938441
-0.1299933740512898
-0.1994488651578966
-0.2133963119587708
-0.25360294525930377
-0.46997308882212274
-0.6759516564755862
-0.9932023491404154
-1.2434590855769077
-1.270912491227355
-0.6192320367181348
0.7657420884560635
2.087354372258226
2.724367792393197
2.5016827775318675
1.7050667330935163
0.9356723091003457
0.1199174895341932
-0.35504401366771493
-0.5873485168439219
-0.6714452494355352
-0.7208084594924588
-0.8313880350266024
-1.045884390233557
-1.266846742253919
-1.5131471076564875
-1.7898809791168113
-1.81695799891248
-1.2179475546152707
-0.1441760728755287
0.9409705994486478
1.5032553817620393
1.2387991333918806
0.6746998338037155
-0.011836245250453903
-0.6450886194333688
-1.0409587569599206
-1.1762772535261483
-1.156095926784182
-1.1411219859064015
-1.2086545007137728
-1.3503842438237545
-1.544997695623924
-1.7720629621363564
-1.8919301869045917
-1.5051660754668987
-0.5267565264402079
0.4833389369459649
0.971777429257422
0.8787690256528002
0.40746780928734067
-0.11907303864324217
-0.6573281505005246
-0.990310877026115
-1.1556342870977683
-1.1586885812119465
-1.1320614649260288
-1.1775865839500326
-1.2953083330721191
-1.4396671574190087
-1.6440046610443277
-1.6707012412896527
-1.2426094633961446
-0.34562413210791376
0.7578570498395637
1.1714329558454386
1.0291504398710918
0.6204720662905125
0.10033502070836964
-0.2984915574706336
-0.6571664078373656
-0.7815334813201036
-0.8183513933431033
-0.81984583
-0.8306113150364441
-0.9334300600870047
-1.1231819659615987
-1.3085459409750777
-1.455003015770648
-0.9683649403766998
-0.09547795855985897
0.9063845280362323
1.3538149072609351
1.1784736956137514
0.7105115294974647
0.22809968005915654
-0.11432140487822984
-0.4628209529059024
-0.6694815343106576
-0.6960302952882701
-0.6376288296410139
-0.6952814072438108
-0.8362492182437942
-0.9746154026229545
-1.2085375905977
-1.3942320340950627
-1.472974203378226
-1.1939163692873376
-0.14187536501055759
0.8752844080985525
1.1804245816208778
0.9248341324876385
0.48833822168174695
-0.02848732603427535
-0.35379611856986753
-0.6532291535346348
-0.7067472174029117
-0.6938057792242683
-0.6773500806692292
-0.7258347568826764
-0.8123136252878205
-0.9922690957247623
-1.1569742635365465
-1.3038267329197473
-1.1596787844203975
-0.36795622480818135
0.4144551596182806
1.115888584732098
1.0253081955695589
0.4904361592119403
0.062013589620889056
-0.38512856619157315
-0.6682817847543637
-0.7922770467072254
-0.7885771453862128
-0.7207476798414074
-0.7146849942979802
-0.8375035669977843
-0.9445891101649243
-1.1816154597365267
-1.3239041071473783
-1.1284473077930666
-0.6095740813546121
0.4371892588920486
1.0742352649122018
1.2355360857915887
0.7460362825450076
0.2849551932740994
-0.1519104118706535
-0.4504654761346426
-0.639212469497848
-0.69636317
-0.6687065230450693
-0.6524474283982301
-0.7368248606469692
-0.8653922917640053
-1.0142808542941224
-1.1703086649290095
-1.1800986773611888
-0.7853967689120814
0.07411944563484307
0.9315712382586899
1.2793594
1.0624634417800571
0.6029590431646149
0.16350788299499527
-0.24005292240952436
-0.5230125834397037
-0.618184805179709
-0.63462184
-0.63462184
-0.6638872205013436
-0.7594398191093463
-0.8850815613529023
-1.0402556689616382
-1.2234325292088934
-1.1336780521076306
-0.47704525747369364
0.5073360124290385
1.2222562018863226
1.2083621000774893
0.8567086375929774
0.35079177970606046
-0.18453712927984334
-0.5531106212300716
-0.7494979880790907
-0.81984583
-0.81984583
-0.7732296860307875
-0.8042948579461839
-0.9062234174738042
-1.0368743476764262
-1.2380932968763732
-1.1788191355599833
-0.6590144933849529
0.13795951084878533
0.9170181694830621
1.0545187195937447
0.6911253840702997
0.14502616632307963
-0.3461942458313546
-0.6507829582734215
-0.8010193311143765
-0.7872058376456563
-0.7316740930014201
-0.7011376469586476
-0.7309079074377888
-0.8390650750297806
-1.0205518648362482
-1.1611785263397345
-0.8618348424215566
-0.044430104661498326
0.9476111873525181
1.507761101707845
1.378328452348854
0.890685442407581
0.3717270966878564
0.003955110971389397
-0.28792531222854223
-0.34519229038241994
-0.3261901267622675
-0.3294374438715169
-0.38132476371403407
-0.5212861963677313
-0.6791806080920897
-0.7931960516516838
-0.6794226121279417
0.069602141655797
1.0097851799985251
1.7974887772977084
1.7310185023872102
1.341604600224397
0.8370247901525274
0.35181350220685714
0.07508112090925761
-0.12701658940476418
-0.13908340601837635
-0.14778827388529753
-0.20545732996811555
-0.33068706647336354
-0.44851031888780096
-0.6295155564855377
-0.7292840131017683
-0.29594083883745226
0.44940817227201746
1.5479510220261856
1.8413725183713732
1.5668502083281386
1.0706421112575581
0.6057826994069107
0.1729655584276184
-0.06973032299654908
-0.18207319997241397
-0.20183980441069466
-0.2587687592702818
-0.32836582412513626
-0.4811142131100186
-0.6758633272621097
-0.8684929656331898
-0.9188664512160811
-0.2505680859653996
0.447182561885932
1.3109775152703078
1.4380174182448124
0.9813695502912784
0.46855494842790624
0.0025752784339865137
-0.39819656771133083
-0.5571500023966823
-0.6031001806954225
-0.5728805
-0.6163430243747006
-0.7240461317335356
-0.8640319396904144
-1.0435422732707984
-1.0623622955931675
-0.5934735253568806
0.3668428160121706
1.1129595152447243
1.4021841261344636
1.1600878960920384
0.6722751121570216
0.1945119116863284
-0.1801379587608443
-0.42958184155051304
-0.5657918809240193
-0.6223874027904034
-0.6629545537133436
-0.7424755019177726
-0.8819814092673389
-1.0415718116417747
-1.1517484740831638
-0.8297118151331894
-0.11433306920636155
0.8581700756716708
1.4311200129453945
1.3348181444630869
0.9341242911651082
0.4383509515143092
0.011590523388959217
-0.30692556647393004
-0.47265560750856256
-0.5066460352075072
-0.5493203190099283
-0.6389588536684031
-0.7400097347801855
-0.9131713050012196
-1.0911831591122403
-0.9880463084865909
-0.30622274881991984
0.5796898471199237
1.292241258680737
1.4672393147862304
1.1620693590631757
0.7064904408974
0.19668376115654795
-0.17638957022300472
-0.4199902716149033
-0.5563731720552486
-0.5520744087728365
-0.5687110915285867
-0.6538731155188247
-0.8187729612780648
-1.015816811760392
-1.0920010033070018
-0.694484239684495
0.21617389334884562
1.1501456606033633
1.3933478162042305
1.124039295418582
0.7028847734658197
0.022369374359723526
-0.30907934274605203
-0.6276606103856153
-0.6748883557496248
-0.6680632061595628
-0.6471897811354296
-0.7114312255503479
-0.8721363456051633
-1.032496037314141
-1.12114859269653
-0.6910728084053943
0.2155458721224468
1.1230461510517087
1.5235616659868276
1.3626086859524746
0.8538783405728895
0.29320755766995377
-0.09366145079441338
-0.33066145857026313
-0.438434250864676
-0.4701468692484763
-0.535441857823297
-0.6091885389961889
-0.7655249327726058
-0.952027220992495
-1.0014439423936157
-0.6314591210573739
0.3484260785098265
1.2526684517714073
1.7181026322650614
1.5143022656642755
1.0564375784570676
0.49810381555886096
0.06124198727964396
-0.18689968097834608
-0.3357636129864187
-0.3816374205642243
-0.4217430705343412
-0.558625556949396
-0.6865139423373763
-0.9377337088352204
-1.1098237498471177
-1.086599195109179
-0.6603237861665291
0.4134126130725485
1.2397680479405848
1.4061319339314937
1.03572196133042
0.5254927965135738
0.054210428791692716
-0.3357759377533033
-0.603521752120242
-0.7244562280108818
-0.7581045
-0.7832078028158672
-0.8594378277695731
-1.0196116984263046
-1.176521485576832
-1.2807619516031377
-1.0418134087814899
-0.1753624354041025
0.5803136032596096
1.0017821437531518
0.8454569428993906
0.4574136844744437
-0.05131432656668232
-0.39735576293957914
-0.6634416522632579
-0.7509020474510089
-0.7783724229725062
-0.8391633760890678
-0.8981864679038464
-1.041455462661595
-1.182223000485927
-1.1723779368719869
-0.67749940610329
0.18370200960080457
0.9738395193360276
1.2210630426710884
0.967430473528047
0.5204712549350279
0.12478890464982106
-0.2574181965223591
-0.5235196914486968
-0.616475578302259
-0.63462184
-0.6605606348023321
-0.7209928960990528
-0.8552923132410418
-1.005056442815305
-0.8202724507562555
-0.13989121349252642
0.7833140036830217
1.2923161972039563
1.3329243066553653
0.9663568160556066
0.5487691026856076
0.12419767533133447
-0.20749254801812736
-0.41267280735501144
-0.4635332747339754
-0.4679133924997171
-0.5033861371214625
-0.6009607543656222
-0.7736649663215649
-0.8374784992201469
-0.5002857295758469
0.26594761055064
1.0955354733871787
1.4908787383832771
1.2810999928026974
0.8375040927301454
0.31427558478292555
-0.05239427866159768
-0.3005794963173649
-0.48512752940806236
-0.5104301746695135
-0.51113917
-0.5701470199523851
-0.7103297968494767
-0.8741844999353044
-0.9934980099383298
-0.6113253188283667
0.05243973444480732
1.0357834127086611
1.296653646072558
1.0545128070679337
0.5936703819014186
0.12148347566747662
-0.26840311363290337
-0.5490661540966567
-0.5728805
-0.5728805
-0.5785822504275433
-0.654453952851385
-0.7994604647959394
-0.9189738730433895
-0.8366138788041899
-0.2508383885602425
0.6492695719557848
1.2133431261886274
1.3591452908748844
0.9634868373380636
0.4874092176528161
0.07219681089856984
-0.29611864147142597
-0.473978228438995
-0.5539257776833398
-0.5253091543454939
-0.5543766183335521
-0.6372276291745357
-0.7931660423217106
-0.888107773856024
-0.39824428078887786
0.2893513154092484
1.1945036629176116
1.383695822664029
1.0297624430988672
0.563835639599538
0.14141521630959533
-0.2314346855014855
-0.5187552204569235
-0.645158577688088
-0.6782332348727227
-0.7001589321704649
-0.775326887408944
-0.883015224246344
-0.9792069608421723
-0.8397620950704763
-0.006292738823536592
0.7950854787811705
1.4055662748049504
1.3831008652853165
0.9022142288610953
0.44536227179548726
-0.015042795117935659
-0.3486255766008389
-0.5384507133522827
-0.6213092648718802
-0.6577479811740572
-0.7298719753611256
-0.8372954978548238
-0.9804179991330383
-1.007756103268402
-0.6133805365156941
0.2050217219512901
0.972562509765069
1.2110704825864995
1.0082481224033812
0.5493068298809642
0.04338879563884632
-0.31861576765607985
-0.6062565537751925
-0.6830421691893843
-0.7242061112865763
-0.7581045
-0.7599652843280793
-0.8423425839530627
-0.8394488109914716
-0.6334611065741825
0.0007007909872197571
1.0956012660348369
1.3528806481688225
1.19991129609873
0.7203942256482254
0.21474579979385788
-0.19668259000363825
-0.552004727988767
-0.7075456527917848
-0.7702300663616893
-0.8105677311391898
-0.8437441332704535
-0.8951274763914778
-0.9419869115852758
-0.5689894915911347
0.13295743442555075
1.1361831879247468
1.493157242338952
1.3214290825830672
0.831447742709515
0.36233713855989946
0.015807634241673918
-0.42696298255160225
-0.6085040089562017
-0.6853079036803152
-0.7290108176839608
-0.7762761562085584
-0.8895097112559
-0.9575309511452175
-0.6500233404440208
0.20639454457507656
1.0890867827176587
1.5378475004997552
1.3891348999225444
0.9354646951523569
0.3693067251693536
-0.08117226354812013
-0.451080127205161
-0.6859559881351387
-0.7897306278201673
-0.8689316367894339
-0.9317976137167978
-0.9894501913195979
-1.078371942253189
-0.9014609158369181
-0.11738583989576423
0.6150584030163835
1.5076942185820656
1.5630209640461292
1.1458529437045093
0.6094857525809942
0.07892318689289406
-0.23095257554004828
-0.5686367521367928
-0.7485444770944167
-0.7865052073409108
-0.8296484424809762
-0.8944433431062309
-1.020982836413278
-1.098874708676957
-0.970432496265587
-0.21927317585274325
0.7436721832027656
1.5125831320697978
1.5253320948867806
1.1346376254123935
0.6018534891960438
0.066842424529066
-0.36308749647616
-0.6995045144301331
-0.8862631856424712
-0.9488600805063594
-0.9726171151311311
-1.023071525466324
-1.091024585629533
-1.2356407789017867
-1.3545491963529421
-0.8333091308276397
0.027085532945371804
0.9406235832669174
1.4782617765887078
1.2588435051209679
0.7365083889403934
0.16685795207347573
-0.3187303254227238
-0.7564222721530053
-0.9537995934478553
-1.0668111999999998
-1.0668111999999998
-1.0756558860771797
-1.1168030882234248
-1.2287548847095766
-1.256851720096903
-0.7965650170078706
0.044753562477920755
1.0585900124543481
1.5155556368272038
1.437264117061026
1.0151393747651773
0.3590867196835643
-0.11480503868189534
-0.4263937301414979
-0.6697337864035089
-0.8177494185108151
-0.911741701874103
-0.985322819683023
-1.0714807828939341
-1.1289720643233512
-0.8622356033592706
-0.0013882136070350048
1.0968725900710146
1.9232656845068044
2.0898030167675974
1.8022837038076076
1.3026303824401637
0.7329569507362117
0.26841291893724417
-0.12492496880595813
-0.41279248583956135
-0.574714589569086
-0.6688939713729669
-0.7721766079559675
-0.8755689275581418
-0.6729762523631149
0.07288129543272426
1.0746731307533943
2.0222305819317694
2.4745263896833345
2.2924524445091414
1.796919920767303
1.2366733826566292
0.6486949189570173
0.19256389467566282
-0.0949742696560145
-0.27268232132738623
-0.40530777380408534
-0.48591017951808635
-0.5848049580041288
-0.42068390652097354
0.3051218970123445
1.4842463953219067
2.5227067952267648
2.8069096797429984
2.592626828949698
2.069949895718579
1.3578465168318794
0.748448819112778
0.22903139306221854
-0.1127348053974147
-0.31577171904813883
-0.48427408899176627
-0.6071765151411166
-0.6662571401272784
-0.5006892519743092
0.34323849845527893
1.3584440829972788
2.414985386553119
2.465227530487986
2.162208918771168
1.616026077274145
0.7641391461932012
0.36057109363579964
-0.036151165825233936
-0.24846814268864348
-0.36341747653094597
-0.4280663136085609
-0.48857670327169167
-0.5203453560876969
-0.0008129858222001435
0.9776065746203906
2.08557025345188
2.648031112319974
2.480104435105204
2.031092082837416
1.2933537748028137
0.6007412880716969
0.10971572730986605
-0.18449349691694433
-0.3774047006545526
-0.5026995102647467
-0.6249266534956022
-0.6932248554823142
-0.46190226827117736
0.5403907299555852
1.5738307957726918
2.389034887721318
2.5134958497543494
2.0657649929594553
1.4401992107943684
0.7387172300274455
0.14284878906712561
-0.20120516931152616
-0.47636471170087924
-0.6429727218710178
-0.7660197093946131
-0.832061150982136
-0.6977032116985667
0.16941414710023145
1.064224269482567
2.0740254400176514
2.2386455567985166
1.8909844892615613
1.282311274476208
0.6554477448844935
0.03677281576607891
-0.34836316763462155
-0.644306048712757
-0.7631379913604074
-0.9131192985733588
-0.9965079242609944
-1.004961742634156
-0.3054751238184788
0.5078880426913639
1.4760617917890873
1.7732901
1.5721127106170203
1.0328423494633143
0.47399640687453926
-0.10989175357160358
-0.6351671345721497
-0.9011106760074683
-1.0763800247152775
-1.1992025068116106
-1.2732186708631423
-1.2237058145985977
-0.7152582824078242
0.15148101883936677
1.0509059413715691
1.4399499569885497
1.33073341022998
0.8735638181023428
0.26774167815479266
-0.2773568572902017
-0.6579318855079908
-0.893595961444119
-1.051609512547133
-1.1852783635544584
-1.3519476311948622
-1.3401137186281444
-0.8603367278192068
0.021251650632241326
0.8539797098137656
1.2810905205245793
1.142028512057559
0.7593922703617941
0.2738962129481207
-0.14890474352393096
-0.6639868879990458
-0.9160575874667034
-1.0667083935557435
-1.1593086689363539
-1.2598247976658101
-1.247196503043016
-0.8476634786944306
-0.026669371927597996
0.882224974117366
1.2761988054370161
1.1560857363951604
0.7173642007128986
0.28131330857734355
-0.23535322519902943
-0.6138686822328354
-0.8264873489510273
-0.95643562802052
-1.0317845205847294
-1.107832822443268
-1.1556433973271563
-0.7983502144474011
-0.09301132750569818
0.7437951271016482
1.2359041530545207
1.1172648703551442
0.6910613481044443
0.20030756187493218
-0.22632151985608567
-0.6665021212518023
-0.9479403411131401
-1.07477599689887
-1.1540737600783086
-1.2150625562186192
-1.2496540112702392
-1.0104567526310095
-0.3071405638439539
0.47818105194325805
0.9345316472924563
0.8956517943251494
0.4963980562848797
-0.015064137072478667
-0.4081851328860886
-0.8228823174935573
-1.047431833850536
-1.1071407053934048
-0.944304496255007
-0.4801268199009157
-0.09304740658430122
-0.004167036208913656
-0.3497023761021752
-0.8464813710079343
-1.243161863415411
-1.5008066543033245
-1.6265012384888722
-1.7108025489713254
-1.8017703864497345
-1.8774023639980661
-1.9633746755371846
-1.9723778695334615
-1.7582685464990702
-1.049443113041952
-0.10674322399984684
0.721144154053657
0.9604409602762521
0.7052573918495784
0.27279810727151044
-0.21543554527403957
-0.6076371707868343
-0.8694578322072234
-0.9908448776342424
-1.0227831070402007
-1.0586080498692034
-1.0791185176282039
-1.0334628527581624
-0.6385267219126008
0.09735460571606902
0.9443910311221249
1.4013025896517397
1.3221772302641686
0.9366321623789933
0.4125001468950462
0.014613642876955657
-0.34011951622831404
-0.5553288835169964
-0.6331546745813965
-0.677290683459593
-0.756268271158725
-0.7382850245760222
-0.32697204436304866
0.4148254175055299
1.1284590040975717
1.5847908920051441
1.3953280171978584
1.0397642671871319
0.5739305799307353
0.13078594861407106
-0.22360776880931207
-0.3989545942371591
-0.5130349104259211
-0.5212874634168346
-0.6147973470614498
-0.6012414718676176
-0.23748527778932288
0.4852046344783201
1.1691304702016772
1.4289673260468225
1.2427590270589635
0.8668366392503182
0.38122748170106097
-0.0470652931452763
-0.4095460523406258
-0.49368717653667715
-0.4640658872377976
-0.43444459793891804
-0.3134183722164386
0.0067034380009509675
0.3268252482183752
0.6469470584357995
1.1323829574537714
1.171846750077413
1.046312904971315
0.7105274934872434
0.13992996447562023
-0.18776695174808844
-0.4767967514341771
-0.6044465363961667
-0.6810750028058284
-0.39669708918819113
-0.0870611292235727
-0.13679953223656416
-0.18653793524955561
-0.23627633826255245
-0.28601474127554927
-0.33575314428854075
-0.38549154730153756
-0.43522995031453443
-0.48496835332752586
-0.5347067563405173
-0.5844451593535142
-0.634183562366511
-0.6839219653795025
-0.7457585632476762
-0.8258963562572945
-0.8680642969422347
-0.4926857368669491
0.23929154872307976
0.7819352597996503
1.0976451449321054
0.8947693912186049
0.581814722134879
0.16667405017006515
-0.14296199479321195
-0.4523833898900037
-0.613873686059611
-0.6967530490016263
-0.757796954698702
-0.8244555691104344
-0.9130580647194194
-0.8405881953090247
-0.2613099089158641
0.4544455148915214
1.025002119744965
0.9351584722060678
0.5716059954779534
0.20304489399651973
-0.17235594382327635
-0.45998797074011527
-0.658374252300149
-0.7379134264834454
-0.7657746134401878
-0.8147125309541432
-0.9444308263818988
-0.9994019243897306
-0.7571580199481147
-0.16667956411856305
0.5868047310882603
0.9267166516533645
0.7208953920680947
0.4061919509574641
0.042073463769618916
-0.4097237120033651
-0.6916093228082622
-0.8114740881148312
-0.8642101994469462
-0.88158716
-0.9115391573488449
-1.0056049071369526
-1.0162416989804837
-0.6730652441943581
0.02850269938784933
0.5821895173352339
0.7877200486758426
0.4948423570840879
0.04161456614170489
-0.373484001779624
-0.7100477643440796
-0.8842646250259957
-0.9317369512738296
-0.8967785945336767
-0.88158716
-0.9209502434457248
-0.9894038717330675
-0.8547825145799941
-0.26339640237204803
0.49550097339498905
0.9159080993748274
0.8808750030453172
0.545199193661444
0.1497966504884792
-0.2342549954031497
-0.5161649164932586
-0.6487685353111229
-0.69636317
-0.7010294637561677
-0.7279529721657667
-0.7973256596817052
-0.7610428618067372
-0.4186520907711885
0.26497571890967053
0.8731529898481631
1.0611631435252744
0.8631912094461356
0.4593926465928977
0.06406067388229097
-0.2955160041629766
-0.5368314805231162
-0.6619452581820269
-0.69636317
-0.69636317
-0.7594141885235265
-0.7963239102091503
-0.5739840684653037
-0.011089158351786865
0.725846154141341
1.243955785302822
1.1902245663881914
0.8847137529764051
0.41226070861579156
-0.002760990391391563
-0.3382047690647885
-0.49212241420968217
-0.5824075479145732
-0.6141895942875367
-0.7060947390313521
-0.7524907546222085
-0.7782182865092896
-0.4127988627485276
0.09326129891830615
0.9093236714572237
1.1780289136398698
1.0441033080359112
0.6728077597288257
0.261195537988516
-0.027026862056142825
-0.3093361504546353
-0.43187052665765385
-0.5018601888947294
-0.51113917
-0.5715191491189937
-0.6454007972948568
-0.7527766478851728
-0.45512425967310327
0.28803474929587736
1.033569892206125
1.2988870316590964
1.1193849122281805
0.6716854976475194
0.2329372393003638
-0.13464862790010873
-0.3284191818759021
-0.40489555312470504
-0.4496136132204683
-0.477670350979998
-0.5410881928794968
-0.6048387833033231
-0.6060393906037678
-0.20253115432950342
0.5513980248928565
1.1841533174767178
1.3877295241937389
1.0599533696486167
0.6637350319782355
0.2323101622932567
-0.09629224528704644
-0.35531572027872826
-0.4416146947891179
-0.4863713890832384
-0.5447926348016637
-0.647914318665217
-0.6909576899935812
-0.5936954904235705
0.003217042999073813
0.888287251346446
1.352924981171133
1.3238550486326637
0.9399039680311163
0.5053940268360086
0.1071655906548335
-0.1695491628834062
-0.3336657399319596
-0.449107979760085
-0.5018807123275638
-0.5284781466704753
-0.6155941900057429
-0.7016243001305216
-0.5446475604854999
-0.035194203681649106
0.826561959593276
1.3854072027337523
1.3294755017203848
0.9175052933206732
0.49718842323446377
0.07293313366273682
-0.22210506930822616
-0.4200381082627078
-0.5065134384661619
-0.5435485027645749
-0.596366228154792
-0.6790582719069305
-0.6549350061426298
-0.2107699328595774
0.5644060980376728
1.3168389145673758
1.6220620058396977
1.4293574200785266
0.9924578232319257
0.4531262095847306
0.046656034349449135
-0.16643873480851096
-0.32150570174307336
-0.3811607038982237
-0.42143122115391335
-0.5102535165039499
-0.549059576029257
-0.3303384793371599
0.26831659836674243
1.1331053064294276
1.5976575944092548
1.5804832019719581
1.2036671309745395
0.6737503291166679
0.20481337423096244
-0.15444814966063067
-0.26973683839189955
-0.3462906302238093
-0.4077416980246171
-0.49250564575632777
-0.5830649714375314
-0.3960621779819388
0.1959423312329296
0.989101236729861
1.6383514417656364
1.711597157562401
1.3651896243353434
0.9020301549612455
0.3724942342453701
-0.005994286288149686
-0.23266666647288545
-0.41095331349167147
-0.4803522754638784
-0.5180977756350432
-0.6053130649383944
-0.6816141763219433
-0.362518008517232
0.4647176996316506
1.4034593394845472
1.6966968405793437
1.5617311011225523
1.1527396176393594
0.521701238159759
0.07422699563339058
-0.26476356961236014
-0.4838391564689599
-0.5745628728303092
-0.6246352723470707
-0.6888250834635953
-0.7974995112718568
-0.677085520199038
-0.05756030749842789
0.7472137377560267
1.4188049647273315
1.6051718640703905
1.197528939556618
0.7365190755915483
0.17900469958346543
-0.25639703883562126
-0.5658184339323795
-0.7413162372060065
-0.7549235235034109
-0.8009247478227862
-0.8803054659389623
-0.8327934511161905
-0.4213442099161379
0.2741881647998483
1.0099597683114836
1.4283403874339466
1.193957973793719
0.6339258031688273
0.1289052399940451
-0.21699021523056505
-0.5928285528515862
-0.7714660306330491
-0.8645458123071106
-0.9285734029465395
-0.9892541850784682
-1.0374111854664327
-0.8481232119048663
-0.16681436005984243
0.7138431798168793
1.247045421759946
1.2323785620087748
0.8145850893068318
0.31030304822987387
-0.12150829806817842
-0.5054390088176375
-0.8058547200049514
-0.929408695030229
-1.013237483119583
-1.0750066283256121
-1.096399463122559
-0.9797000707380944
-0.4752970122554845
0.35372875279842936
1.1077421783809627
1.266882215359022
0.9460962637864146
0.4220209532008893
-0.025823372110185996
-0.40659033470921835
-0.6852461195092032
-0.826151913898044
-0.9436222863926678
-1.0372461354432527
-1.1495501819314158
-1.1476703189258513
-0.6623268349665915
0.12510916890636303
0.8770930771992647
1.2726084235452273
1.0863420090328626
0.6225943061578447
0.07592634275626928
-0.30717212052629295
-0.6479711600460207
-0.9024735595352451
-0.9891654173653811
-1.0332630536813314
-1.098050062897169
-1.1222751672488984
-0.8184097509565383
-0.03780675673846384
0.7635198808684025
1.2781481390064853
1.1774445960885438
0.763526217798778
0.3054464996804903
-0.15317621994214178
-0.5113852446314754
-0.7706970389411573
-0.9227274330276162
-1.0134655609544174
-1.0834027626916969
-1.1006330726787485
-0.9273912720542009
-0.28365845772053017
0.543485040032709
1.2808027840876006
1.366793622178733
1.0588619682824205
0.5765386896688296
0.061867088037781404
-0.3371628067189948
-0.6417863954727007
-0.88158716
-0.9173313261970979
-0.94332849
-0.9882345657011975
-0.9176797985447063
-0.42024474423782415
0.46783848743366896
1.1220740304628325
1.406221613658966
1.1431010668180788
0.683807247593166
0.1857847420948296
-0.2877522837282184
-0.6654609121645008
-0.8679480139888535
-0.9706112138836503
-1.0194425533879905
-1.0386827461975094
-1.02235432645905
-0.3785014091043907
0.38250826889860845
1.1804638828303433
1.6467824659366403
1.4006664105295688
0.89467413944831
0.38669359178830526
-0.07128429912997669
-0.41398970705551974
-0.7267299575203874
-0.8271870152652195
-0.9117320889041841
-1.0045255090259966
-0.9814644985279413
-0.5227848195706105
0.4094980963762452
1.3088783275233626
1.7991070409957293
1.5897680465036188
1.1948974968345867
0.5110435521702438
0.006482178265812585
-0.28845627932695966
-0.596854705089798
-0.7843028872783049
-0.8707635516834925
-0.981539425535965
-0.9518874694448596
-0.5642668877592741
0.44496240507024704
1.3447157309908437
1.921046687559844
1.829700637174751
1.363076411522275
0.7853144391242317
0.19968093913377769
-0.12974774108834558
-0.409647460263875
-0.6554427932999688
-0.7590919905440311
-0.8165577614897566
-0.8584851924396599
-0.5580423062400982
0.20971916959790796
1.2938769112125592
1.8682756522786927
1.9343459578506141
1.613514642885647
1.048821720360374
0.3826027385767689
-0.10048673299571467
-0.4630024303398247
-0.7100595317306242
-0.8571455131379576
-0.9586665169005693
-1.0081022365818664
-0.8481372028170139
-0.21370859967936157
0.8019328299451558
1.6564626777156848
1.8056945560407498
1.491382268025546
1.0072391277600505
0.26069653804648274
-0.29147340237367225
-0.6605937915800941
-0.8717918180313422
-0.9786846071040458
-1.0435751303433647
-1.0791594
-0.9795363688967721
-0.4928207998234319
0.5136576275049364
1.4686371893853025
1.7424874165592028
1.4189296974987065
0.8973542429010577
0.32003635832273836
-0.15790829380001684
-0.5348456700107491
-0.8312756445017138
-1.0083868470284736
-1.1384727748964163
-1.1701687030176138
-0.9177624971836627
-0.12072369660163851
0.9053353394891007
1.6311177925691518
1.9150363606236782
1.565064230609209
1.0217701641110088
0.4057484157082783
-0.16027158873497016
-0.5572855034215232
-0.829211974613616
-1.0011006445302888
-1.1088623748616957
-1.149447390668366
-0.8080179365051002
-0.0076723512750375145
1.148557663290445
1.9736452552607127
2.0830560429749716
1.7573737179395172
1.1441331954791951
0.5762271590887065
0.03749520910929538
-0.373348465245126
-0.623432110148554
-0.7850217036589158
-0.9075225771719522
-0.972816793224353
-0.5862473629503766
0.269362703166894
1.3049113239603516
2.1598201194657607
2.2348333466847015
1.8767054790119813
1.254030447495492
0.5843396672259051
0.12042670622645602
-0.21675258235174422
-0.4734722074095406
-0.6192915570358085
-0.703568218633137
-0.7066962246383262
-0.27196461460102567
0.6087452018432029
1.6750318506968944
2.3367965406093814
2.3712181552139064
1.861894412815388
1.300950323663985
0.5959439694361244
0.15119550884091132
-0.19784234921125554
-0.4433680223746414
-0.518783589883
-0.6105266178327065
-0.6439140861936895
-0.08123338436013024
0.9326144995145433
2.087630575393882
2.532040101755344
2.450753695896975
1.8553412409087697
1.0697823884409159
0.43717627953687554
-0.05222181136643714
-0.32669913129826006
-0.500975094749526
-0.6804477535414402
-0.7288424280011181
-0.6521879132034817
0.14827862393989183
1.258351774419341
2.1571623462639424
2.45656562839912
2.126294751768941
1.527454130497113
0.8862280574299166
0.27455128878715135
-0.1175117298951919
-0.3815212274773776
-0.575934508412399
-0.6858355690807422
-0.6824544323407876
-0.25175389708286805
0.6265236650117987
1.7174725377279838
2.467883450780628
2.4827211269649587
1.9734805835364304
1.3065328431275802
0.6721410890942108
0.10810440708940419
-0.23253607173868732
-0.45290185267957345
-0.5708264115678312
-0.6372551899575714
-0.5288299020772959
0.09550197093557405
1.0417501003532237
1.915117200460581
2.2893637578560853
2.0485094330818745
1.487643135835388
0.8245423600907056
0.25040495586239403
-0.17708514913067996
-0.4399033649866735
-0.6044865344680623
-0.7114851544027283
-0.7581045
-0.47795443458084247
0.31113908692337733
1.3567032308103424
1.9793432460390479
2.032967137133673
1.6124967469962954
0.9593453199901711
0.30471528453437513
-0.1803871178266433
-0.5097377080171939
-0.7412314819307108
-0.8754930691466822
-0.9930072565609159
-0.9141203199953528
-0.37207309506924063
0.46006453126773295
1.3540137235099152
1.7905096503233957
1.5590658646281081
1.05055517063575
0.44501136562279425
-0.11249356862085494
-0.5307777762343182
-0.7964409039101226
-0.9470972228094713
-1.0892714844894897
-1.138687955566191
-0.7696521741048571
-0.09899942668609335
1.0655494467758526
1.5488292105727992
1.6030884404338621
1.245480934532165
0.6309517883807889
-0.014061858880971688
-0.3515572472354015
-0.7290244543341224
-0.8944459181964314
-0.9782239982304656
-1.0878339745163026
-1.065621178525739
-0.600281886348573
0.15838979290616173
1.056374064324393
1.36753074487747
1.1458939535667667
0.6580810302915223
0.13658883240740943
-0.30446279933880604
-0.6769746741871399
-0.9165415488727241
-0.9414812155225004
-0.9791267058813541
-1.0412523100054436
-0.9953252006854605
-0.45040141057366423
0.3922285256402985
1.0379373705136103
1.2371382660812975
0.9419779244086215
0.5156604748000444
0.0032756396736510762
-0.38163342141122114
-0.6508720493922266
-0.8386547355293298
-0.992764394338042
-1.049044074617848
-1.11742740785455
-0.882600161130733
-0.3185160316980149
0.5940229940131911
1.1104563600054502
1.1858275138117536
0.8349304613486923
0.30720267064152
-0.038712800577921536
-0.45848848455645014
-0.7812791390948232
-0.8736992188643138
-0.9488588556889581
-0.9914391043071308
-1.0308049418197494
-0.6518843588889759
0.0025233225979015006
0.695361954452395
1.1096669256983966
1.0194549741437402
0.6514339190907088
0.1427848510036946
-0.280625145111151
-0.5931580216917705
-0.8419288771911279
-0.9975965929557659
-1.114570700157723
-1.210719069567036
-1.0558025632491834
-0.4423600427036982
0.4114009813657181
0.9297275270425848
1.036797778455457
0.7917479226490144
0.3350985745977259
-0.16645448225233028
-0.5544471412887915
-0.8294366348739614
-1.004174386107414
-1.1241970675394801
-1.21424162535773
-1.1935663698661956
-0.913435135332204
-0.31360734518899797
0.41332152049915094
0.8361678093896264
0.7190565088680488
0.359369345470003
-0.09419599369067473
-0.521670016864614
-0.8956208518989417
-1.1524907401198035
-1.2726003322076318
-1.34034154143496
-1.4048716093327287
-1.200224057731982
-0.6482543141865207
0.13765843511983922
0.6884476714878908
0.7738398995408307
0.44738230170489096
-0.006706378411263314
-0.45631162697398386
-0.832629079332042
-1.051771365854773
-1.1564323286193068
-1.184653098134834
-1.225655596966458
-1.2635840068171482
-1.0988294075671532
-0.4845531329693764
0.4799845770947744
0.8354518898539193
0.742662173712862
0.38541903100026825
-0.04373435296072853
-0.6089733472896995
-0.8530074939129614
-1.1232560135969822
-1.2229593185347247
-1.2819596252867644
-1.3673050075157476
-1.4011218227198419
-1.1888577176086716
-0.5759699550272394
0.2715147428593444
0.7381160381084199
0.7778650265855703
0.4702883651921261
-0.003414422140390727
-0.47763460101982985
-0.771560181075757
-0.9534819793342403
-1.0479968978941185
-1.0631583562915756
-1.0958039026753923
-1.187107409160088
-1.0128977832052883
-0.34235242335771054
0.40833546561486134
1.0003452698822266
1.0805308538725296
0.7238210738407314
0.27415706204363305
-0.1795488051783998
-0.5586898529220823
-0.7441197694986765
-0.8627316550749099
-0.897153040925337
-0.9613944853402623
-1.0063917758849115
-0.8142685756775894
-0.24057198040503358
0.5735374577551982
1.1635286731757575
1.32791291605716
1.058955094056985
0.5400818916299996
0.09144211340463593
-0.2664471377590369
-0.5122655871837022
-0.6381266064253821
-0.7581045
-0.7885778739963906
-0.8400872299648215
-0.7105252320082048
-0.2337565247942123
0.6225781618055456
1.4895940136843033
1.71528918101845
1.4566088384009537
0.9009066778050747
0.383217570468402
0.007604506768574666
-0.288258794073239
-0.4889858885526918
-0.5804901070625004
-0.632777153985738
-0.688911364224987
-0.6761221246903772
-0.4106521122848757
0.4857488165813053
1.1896116972813469
1.7886192007795028
1.7207052857172818
1.2218430730924972
0.7421353337572597
0.25031779482351624
-0.12912685835436596
-0.39532295411352397
-0.5100881728388429
-0.5562852919449236
-0.6136218719359571
-0.7076457111831578
-0.6421764942636339
-0.10185328736151716
0.774716510439502
1.5471807616817348
1.8201633362467524
1.5384169811963897
1.0062529653361083
0.41605793627338955
-0.06284715337108032
-0.3653874564606081
-0.5312788799857217
-0.5913064898956775
-0.6222923763462384
-0.679867969689323
-0.692568347990184
-0.3152225380553139
0.4794257307064089
1.3383701949406628
1.8171194609469044
1.7102671051589078
1.2634321507118949
0.6860325748770859
0.11100042178242331
-0.26649480562962224
-0.5450925626869887
-0.7004446956544892
-0.7705080099684821
-0.8569790490749027
-0.9158448846063776
-0.5906858751415428
0.2534655668813086
1.3383092429213062
1.847922912946803
1.777325037325387
1.2936078961713302
0.686438333858767
0.1427641999045811
-0.31664747474747906
-0.6007625772884619
-0.7260311822047855
-0.8034204036004182
-0.8649134135219689
-0.8954233099298974
-0.5599714900731487
0.24214040019366956
1.3739051394251782
2.1202781854896418
2.141048597093996
1.6460316310799676
0.970077981849073
0.41307041098376024
-0.054975053216301306
-0.3741157037055398
-0.5227999668063619
-0.6008138472661448
-0.6674713098779796
-0.7596745358898127
-0.5850044737687479
-0.03004777093591937
0.8701474914460428
1.8214308048305075
2.1366580482819177
1.882017685209032
1.3768906433894796
0.7862863539773051
0.0785726722328377
-0.415154104276075
-0.5363914905156254
-0.6288043526363786
-0.6741564807812194
-0.8039942459184123
-0.7916401161435396
-0.3465878995985313
0.5972881495964303
1.5957685265297676
2.278695009701479
2.103703206019675
1.6403796000150719
0.9296216305183177
0.29389390992614217
-0.12547982078574726
-0.44226888278435394
-0.6129688323279967
-0.6694960481768798
-0.7346068231451474
-0.7848186452352656
-0.5981734202320867
0.31337051916948555
1.393030866997371
2.1294769660686828
2.295026760555756
1.8399213263231797
1.3457563754420583
0.6394869748326328
0.11222171574404716
-0.26875212661166015
-0.5689856475699
-0.6475023077997958
-0.7135039530746053
-0.786174495350952
-0.6264544673564615
0.043841993970337834
1.2403319851282493
2.120460546040015
2.4300811981431583
2.0590540443015994
1.3859916868261235
0.7394262393670464
0.06308646921477745
-0.2743174022668876
-0.49086959570446675
-0.6124415103126325
-0.6826834326258602
-0.7497409262489003
-0.7246536944183826
-0.22587998812478732
0.7602261464827813
1.9487696683405908
2.4968799334062033
2.363683309761401
1.7504418556787755
1.0934483638782033
0.34389677485047176
-0.16315453296190996
-0.42955996549038067
-0.6066428147496161
-0.6964629333011656
-0.7679869202038506
-0.8321940999999999
-0.6160671332488333
0.1522707660204478
1.2461121013568075
2.1015769177314136
2.1876461722415987
1.6915413394851935
0.9614750128335608
0.253666871915487
-0.23312475014457582
-0.5944189113654393
-0.8138813257015104
-0.8457724997126648
-0.8776636737238123
-0.7285675345477889
-0.27791898136864157
0.35851810716179566
1.1821870609101484
2.0406376172245473
2.064585612290933
1.8796638969202877
1.0622316159778296
0.6766051693264719
0.021660353721460635
-0.4915053909514637
-0.7589091139797824
-0.8583747770555114
-0.9141279329197994
-0.45714932454711865
0.1716089294461155
0.7932001788601053
1.4147914282743643
1.9439673667478412
2.3187641264825607
1.9705635652439568
1.2014774700236166
0.5060018513995336
-0.25981318494016165
-0.6557862875312229
-0.9529762928396035
-0.9941402349368106
-1.0772941239868212
-1.1349631480544546
-0.8439144646279879
-0.16750258414926134
0.6972974188428281
1.513076285458008
2.29992959200619
2.0961958734624284
1.4531172940383645
0.8448925687835925
0.16109008096655908
-0.42764378191636027
-0.8121572956261601
-0.9473593587779896
-1.00469621711859
-1.0720142080540143
-1.2011949589022204
-1.078996456846132
-0.3980125318610336
0.6560017938976077
1.657510917994497
1.9265365309718407
1.5490178506446095
0.8213224969903182
0.14102206633714565
-0.5170021196886271
-0.9100807881318289
-1.1166499966628491
-1.2087379894414312
-1.2735607962663196
-1.3775699753149473
-1.45689414520694
-1.1201613189499509
-0.14692460650073286
1.088976201249351
1.7115488
1.6682954271212689
1.0262705686990337
0.3768475226468657
-0.20789788142718135
-0.6402292909686389
-0.9610739482523192
-1.1510519818479399
-1.2407055941561047
-1.2592065619302808
-1.2815944489281323
-1.0959643631649991
-0.1454485389729053
0.8162117735754251
1.703219837109167
1.8634101893692017
1.5535012493684819
0.8385363395807223
0.1282547650791673
-0.4624401479856054
-0.9577937084025816
-1.0725513465511147
-1.1285525
-1.1501322579898292
-1.2239620877543829
-1.2003564767320953
-0.7168534805821327
0.23128058526105605
1.24710853152782
1.8799538041315849
1.7591307601738086
1.231517724551649
0.4712712968497861
-0.12102017350473794
-0.5746873765513643
-0.8714872380525865
-1.0083098925795855
-1.054389535915271
-1.1084740046167143
-1.1769940926675106
-1.0299274172974417
-0.37759592310783513
0.6239354848211667
1.5346841506148905
1.846370091675299
1.5157500474979386
0.8917461581822526
0.2084641646146484
-0.34685174876284997
-0.7749427990947994
-1.0203771821396743
-1.0668111999999998
-1.0668111999999998
-1.1127757389932251
-1.1515370393124342
-0.8387644363757051
0.028220208212927367
1.0164647944685812
1.6696266453154216
1.667169180889115
1.1813480763441617
0.4925400175658642
-0.16239948450885255
-0.5917207542794622
-0.8792906965038881
-1.0138713613325516
-1.0538174739425838
-1.0996351746841264
-1.174867840629882
-1.1188187471255346
-0.5585736919715314
0.5705366776733782
1.5993377598049636
1.9312957631393473
1.6662368310640914
1.0440141037251045
0.3888687245145748
-0.21377244317030547
-0.6676246794423231
-0.9419624575657874
-1.0456540546605726
-1.0668111999999998
-1.117314619556659
-1.0642069798468845
-0.4694198774613295
0.5874603288399403
1.6488375501326251
2.143139627939369
1.96886931146419
1.2966175817229448
0.5839118381101457
0.021080855962124223
-0.5145268290725844
-0.7881193105252489
-0.9360235163719313
-0.9511704090989924
-0.9973527417227713
-1.0636536014712765
-0.696998584176659
0.13118136855183982
1.5469916414472957
1.9841544057560854
2.009124027760265
1.4623279229709205
0.7744503286328531
0.09487127592822997
-0.45434892542594807
-0.7513468958751139
-0.9304852421996997
-1.0295652456830524
-1.0668111999999998
-1.1261498288053622
-1.002667854917081
-0.3189664468055521
0.5325032236675936
1.6168930726385542
1.853762464628983
1.4735866736657524
0.817956984824707
0.1339388921679767
-0.45933835827772823
-0.8678471643799242
-1.088929042227149
-1.1988391943730115
-1.263344900292532
-1.318614751262782
-1.2760360870677934
-0.8609294148961801
0.1840245178094869
1.2394698073822261
1.6976888419150415
1.4996839639197899
1.0731751665832463
0.16579454851785064
-0.35067218440788894
-0.8193318583454694
