0.12028675
1.1097605433742492
1.5333244794643492
1.374483702529857
0.9968153411255918
0.6676829041088034
0.2917247983659736
-0.2199978603505483
-0.3928391689660286
-0.6485507117359834
-0.8020492108762833
-1.0404569375776782
-1.249225069429987
-1.3714996011172718
-1.469781705350723
-1.6035651082332643
-1.6481824
-1.6481824
-1.6481824
-1.5335920712413913
-0.8476551419887342
0.1973680851248436
0.6767960657719776
0.7221587516787299
0.5602023363964833
0.3085231865514969
0.051863956810676765
-0.15456410889452457
-0.31859134293211283
-0.4319741331868352
-0.44291999
-0.57029722539979
-0.8968938481321145
-1.1347137170752672
-1.2584607336703535
-1.316874281952873
-1.4296627432977058
-1.6241701315374748
-1.5705069508641252
-1.1548053926474733
-0.014656838176670961
1.0083784030801803
1.3624597034499346
1.1149992490278384
0.8117861791186286
0.47815258981460823
-0.017412141052363675
-0.3790418742919952
-0.6455668194846154
-0.6825845038092906
-0.7374239896669429
-0.8799884268915108
-1.0271118338713232
-1.1187681
-1.1375649305080258
-1.2198532768412904
-1.333196555186752
-1.4287003296334235
-1.0844566706325582
-0.3319664054011148
0.30475073091371424
0.6259493753844553
0.6214188711637789
0.4289673822129658
0.1598286999368238
-0.1976609440834604
-0.6094617919791113
-0.702616276823595
-0.6184388628865248
-0.5471456662679444
-0.6297611339975246
-0.935277236823757
-1.1228491215408878
-1.2872445124373513
-1.3107494454468385
-1.1607016986564667
-0.5863748131147445
0.18180303730717418
0.8517415298543086
1.1902440752344645
1.1440857894868253
0.8540383010733713
0.4847846895238454
0.1413815753800165
-0.11033364193736715
-0.3557870776119133
-0.47658568655065137
-0.7249882635663293
-0.8063645040306475
-0.9321642975000781
-1.012257929252311
-1.117357516992682
-1.189289596302808
-0.930418528683277
-0.0016763940229510554
0.9577460551235066
1.5040328427450378
1.5549796992573595
1.4093934869652218
1.2222845019229387
1.0146238187039422
0.7855736641589074
0.5766912501410443
0.47552019780436094
0.3322917124289809
0.17036870626364847
-0.09751116710377067
-0.37937123079747914
-0.6297361350224667
-0.7835883842511367
-0.7280369042857808
-0.03761295723513347
0.956726031823898
1.6522683506218176
1.8711998278371242
1.7502077800401483
1.6340717742509265
1.515143012086141
1.2626994639605782
0.9104297951657963
0.6039404196718137
0.45848191161393936
0.279980805630122
-0.008133642498019567
-0.26647563131105456
-0.5395407757117867
-0.6729710736839657
-0.7180340530511825
-0.509106050022081
0.3889472297808183
1.019130372196658
1.7660360717921566
1.8960508020331739
1.7105951763477876
1.464007014722678
1.2063255800191284
0.8291541989433723
0.42871070446616666
0.1475355424686398
-0.022854240013239553
-0.12092886191639898
-0.23710779724564512
-0.4135825372787718
-0.730585771827514
-1.0367967497359487
-1.2244023916191795
-0.7629610803590388
0.216188566392012
0.9701018249085505
1.4352178184429025
1.323553271774944
1.1296485209036589
0.8418723403239132
0.3467957047243124
-0.034419084668833165
-0.17585775377594004
-0.24688782423761857
-0.36808706331743046
-0.649627164768857
-0.8849709973545656
-1.10415578366876
-1.306104727352332
-1.4536672378680027
-1.4183149656084433
-0.8724736162880034
0.026220613158215583
0.8818603706818942
1.0852430713296612
0.992406723382002
0.8114965228315125
0.5846371490532745
0.22373863132466157
-0.18497804855272848
-0.4557867779839097
-0.6229014123357397
-0.7573276955100835
-0.9512511447687992
-1.15778984639487
-1.3284476282751252
-1.4508813392842785
-1.5742991503310912
-1.5783448
-1.4342574902483352
-0.7946507535916515
0.13812980712397127
0.8791503844164015
1.105222653876567
1.004314109294553
0.7776098040696466
0.445912104396072
0.07362088614530561
-0.24678494880634264
-0.37508928404441755
-0.45102451511730157
-0.6852681266257793
-1.1723270357149436
-1.3367808644723977
-1.6183896103162558
-1.6672662427471576
-1.6744639
-1.662811714947858
-1.2766899604261561
-0.1908865570437139
0.3458991694862651
0.8372628177740079
0.8171776414525288
0.6913373255904733
0.4703302504800402
0.16055302866596474
-0.22888743938626116
-0.5960196581882671
-0.8207597032220613
-0.9854435064028053
-1.1962959487366351
-1.4360187626686218
-1.5768444
-1.5768444
-1.5768444
-1.5768444
-1.2608062689224926
-0.5204183087665016
-0.010656503989567356
0.12039041666369601
0.023184502774239696
-0.18223362822547814
-0.4385015351337457
-0.7086160848278581
-0.8606104519320419
-1.0196285306879844
-1.1990118258363687
-1.4719212059409328
-1.6707107
-1.6707107
-1.6707107
-1.6596330074712269
-1.5392242771941511
-0.779084468366662
-0.018154091125005087
0.5420528000374295
0.7272992236120943
0.6978887348548619
0.5452589043051678
0.32878051305819866
0.10993003047074362
-0.05953846928288471
-0.14466995941689303
-0.32270408142497375
-0.5498004860872497
-0.7109268526254162
-0.8725042102760279
-0.9907014028722763
-0.9672297973286895
-0.47126186070027504
0.40748960760681086
1.3144056378580249
1.7854831660391257
1.8146501820827756
1.6473513425037845
1.4566089738583015
1.1565728759807459
0.7603391411686324
0.4879752306196978
0.31078653871992323
0.11267097493148295
-0.15411900634818704
-0.542375390941863
-0.9617024536948293
-1.3627931058060057
-1.3979163544238442
-0.9059940977084409
0.18490325556797504
0.9540132013299433
1.2548936203540317
1.1805778856282798
0.9642347508301532
0.6140290665081198
0.2743144073694996
-0.06364334708406885
-0.25276753684342146
-0.39668808169753667
-0.5336567711731774
-0.638523004664459
-0.8056457694210638
-0.9813798840621246
-0.9676171125813419
-0.43438926759103746
0.44036017220128776
1.481762165659641
1.85921083503111
1.8400037969891885
1.6786463361769228
1.2909961390167999
0.8324674913746253
0.5017770626553529
0.31811762619555795
0.20685723939415895
0.048016473036572666
-0.24320639052278045
-0.6448685353609853
-0.982246996968116
-1.0736019873187057
-0.6745356178614739
0.19292685164082324
0.9066877718790365
1.200108804357439
1.140000783097165
0.9327242488671578
0.663585566591026
0.28288626574349773
0.03306202558694213
-0.17801056264727033
-0.21381641569707263
-0.3938611024841552
-0.6100944688078592
-0.7624616255909216
-0.9665110851851356
-1.0004083057844047
-0.6142620396477234
0.4265308687317014
1.1555210723247176
1.7821537276114776
1.809907
1.7771425151507052
1.6074635926664826
1.264883172774347
0.9605696431444681
0.7441287424529204
0.6030587293695296
0.473930836653647
0.34977494137902604
0.2588664744384078
0.23381896651764025
0.17255460229186706
0.1626138869902199
0.5435589743910523
1.3137427723134547
2.1925407041082132
2.736184429942472
2.7770878835520283
2.657035885873824
2.4162615942892516
2.063858862320224
1.6383287379801248
1.3695128328280275
1.1828746337525269
0.9184611118118682
0.5948061253304976
0.2677444888833069
-0.00984828443533016
-0.21011569777914355
-0.08057663152934746
0.34975369803855394
0.9464269803284739
1.4896009313637448
1.6626425706723127
1.4488142296290296
1.2110092160919221
0.9224218842806591
0.6327138107778957
0.40269802541642324
0.23161336888156794
0.002838365296531503
-0.3114390023347705
-0.6396895730439427
-1.0631196437683328
-1.1229573348722366
-0.9178917537035038
-0.339063815394357
0.5039096782809049
1.2848788772183877
1.4510513239433263
1.116951556300646
0.7222579905790368
0.4595273721666198
0.14962036285918043
-0.07579998998224946
-0.22425155744384995
-0.4687539258181631
-0.718462839780909
-0.9248041999017338
-1.1192892665018266
-1.371463036481939
-1.6437347584115687
-1.6268736754023325
-1.118438137858318
-0.19611141453148018
0.5295716149324363
0.6455323753883543
0.5416948510874324
0.27905323606041577
-0.02508646658309646
-0.4847932045093613
-0.66820269
-0.6691511560863038
-0.7587569921309333
-0.9961663197325288
-1.2061936040398533
-1.4206573690529116
-1.4643411342879098
-1.4755746410562427
-1.408062733127526
-1.0507443018187834
-0.35352208714224254
0.6915290177849966
1.1601914640861224
1.2675629119484537
1.20975971794172
1.0567497236216625
0.7310773014923826
0.3575915453881431
0.16651201814601957
0.10314219491704517
0.06456952264994621
-0.034408105763637536
-0.2487758827199413
-0.42228716815536815
-0.5360416882397685
-0.566578121800097
-0.3059688057905325
0.34613329961661016
1.3078400948482813
1.7076330648849811
1.7163155311572544
1.5588115563513736
1.3779514595777484
1.1725116703554366
0.8248350231624817
0.49077540200391073
0.2556317860932553
0.099245708488107
0.019806998616351157
-0.10897775454354222
-0.31146485208760777
-0.5380990727492856
-0.7224361483505659
-0.8082644199479023
-0.25656862408112735
0.7347353678710816
1.5271954533671244
1.840251296056073
1.6469120881407606
1.2729966033843776
0.9120185364156869
0.6219597273627105
0.4341972855508853
0.03184494980557753
-0.3474266454873838
-0.6686841646795673
-0.9534068471407244
-0.9779400374423453
-0.9697594679240998
-0.9981052557108209
-0.9168512003331871
-0.4382129929776709
0.33100502537844123
1.0712256641150497
1.3418093226793733
1.2066267436081328
0.877376046726235
0.5465566504797281
0.15158632588298965
-0.2507660113030454
-0.5553282350362194
-0.6921091297512532
-0.8173091306520451
-1.0356989720854333
-1.253875613249237
-1.5351673371764851
-1.540707152173439
-1.0692261119666833
-0.09603497863993923
0.574613327903508
0.9489688564047982
0.8849483296823614
0.7444000985717558
0.34497230138653784
0.02060365571951331
-0.31330126748135456
-0.5341160105154457
-0.62314615
-0.62314615
-0.7459141399039991
-0.9151009553706497
-1.1083076348880154
-1.1970566878543585
-0.9641123714662225
-0.09651847951382853
0.8079106049109059
1.2365184524224144
1.2915064988957787
1.150958243376906
0.9115258226426606
0.46622105398359415
0.13704871361169402
-0.19950163055054398
-0.5206015297229378
-0.7026712983533366
-0.835973601832654
-1.0151190613690426
-1.2546014414127196
-1.3522959999382762
-0.9983900569231219
-0.13246920479887647
0.8773201462204678
1.3111206306538787
1.2738673282635613
0.9748723830337351
0.6429169156413492
0.22078035668950596
-0.21717790437862064
-0.438337915212364
-0.6481082203630225
-0.7732706575571673
-0.9802391794187643
-1.1147897345362527
-1.2325248839551002
-1.1173075951583449
-0.44048789328554466
0.4108843375046582
1.2121447909756544
1.500404805397352
1.2140662194999094
0.8673887697439059
0.35827545776321035
-0.046271266638366795
-0.38382969192215977
-0.5818076489743045
-0.7060922869598505
-0.9129636478171232
-1.1979015868554252
-1.4155295296065313
-1.5018662139792642
-1.3140472986348268
-0.6562570195731214
0.18064607749421824
0.8728211181167346
1.0999153277646332
0.9532817773699929
0.7437970629451917
0.44726896117137577
0.11553375143991135
-0.1587461818510814
-0.27763735530565153
-0.4731342825121183
-0.783205733069974
-1.0321266117577805
-1.1531977408863805
-1.1377163575731113
-0.9849608999226442
-0.3394537909640277
0.4758096815420274
1.0850207833474232
1.3008284187807408
1.1374042604279477
0.9070046041323125
0.653909580710176
0.49119464681911157
0.2867351968103117
0.22885968673334048
0.1483847001888925
0.001425639153685987
-0.2192040225694385
-0.3705334829703311
-0.6814192617044617
-0.8759673238143922
-0.5868584824352854
0.10792801448709377
0.9746270123855554
1.4926163176597895
1.5266934883789713
1.3852087402309456
1.0694715738286118
0.6346967784962335
0.20506094946906245
-0.14098018462893736
-0.4159180377172992
-0.6517618462856495
-0.8966154598067092
-1.0864311328785783
-1.2093463651971559
-1.3251893433206539
-1.2377196380348434
-0.5008532571335493
0.07172819560336456
0.5666163344167969
0.5111419381702911
0.32080653439754714
0.03517529778022491
-0.33973382181857514
-0.8563208088247651
-1.228057132260348
-1.5005361449680594
-1.5787571917708143
-1.6653081043565126
-1.7045031000000002
-1.7045031000000002
-1.7045031000000002
-1.7045031000000002
-1.2430120796416149
-0.4167699523162828
0.18838858172207928
0.3332509650911045
0.13202071913897612
-0.13708040776504754
-0.5318627311593735
-0.9019525333074135
-1.1237983040400341
-1.1772018792671652
-1.178759766269144
-1.372767184726978
-1.5510457290431208
-1.61439
-1.61439
-1.580285848556998
-1.1087461311097524
0.1254272100879734
0.6093742625038154
0.7504281891142882
0.5712871702938251
0.3835247284819882
0.07875028977071151
-0.1754678772717594
-0.38034154681957977
-0.5642225766637593
-0.7423214781123623
-0.9696384007663643
-1.211336946819787
-1.436925754309672
-1.5849458231357492
-1.5543984058613953
-0.8918440794924269
0.1669725120032572
0.8268233626698295
1.2399982164214733
1.29543148752102
1.1243468798026937
0.729956793288914
0.36693689010687375
-0.07842155296004655
-0.3809535211172993
-0.6167641078698863
-0.6779829901033052
-0.7906404468558699
-0.9986817436641248
-1.1119492829015214
-1.1543811719844468
-0.8570285379435818
-0.1576641736410545
0.7018180415112296
1.2168130505143464
1.1595706051050443
0.9203148945418539
0.6209457974651192
0.2532329082813522
-0.1299468691013428
-0.42411137051524933
-0.598851280542141
-0.7687550223650234
-0.970094107329445
-1.163123909258376
-1.3655721153730502
-1.5057660162446178
-1.2668307082176968
-0.43177957763020247
0.42041684108477717
0.9238603356276106
1.0447760489634026
0.8622565154160297
0.5265777330758006
0.141664737938478
-0.40080252498355207
-0.6341555710589656
-0.745847629358035
-0.9338579446815868
-1.0927354072209128
-1.4862166586059924
-1.6867294611148602
0.19187078538881502
0.2780084469730446
0.3641461085572649
0.4502837701414945
0.5364214317257057
0.6225590933099353
0.7086967548941556
0.6453461799125982
0.3868509303208422
0.13636421754425831
-0.29601248100826183
-0.4768556394287073
-0.6573781750791678
-0.7762693485337484
-0.9161146798065468
-1.0190543003169725
-1.1526737620313632
-1.2801522720259675
-1.0748175844094847
-0.12346284537088281
0.7892683528066142
1.461900642215533
1.3537584111053134
1.0284772900637862
0.8119053239622783
0.6286134164792981
0.3731509114903858
0.2725470707104251
0.2286959028251172
0.23068770739915476
0.2549398177396571
0.3044725872365088
0.29648880173654707
0.19940087089921038
0.17746781349104462
0.5064179590839658
1.5678485668947313
2.2605877457239805
2.626106961852791
2.5128193063765862
2.218670729893472
1.7874785102439201
1.2989260788136832
1.0164690367733749
0.8131454716253806
0.5643889006778541
0.3954027030472189
0.13022793117757694
-0.0016526669372935385
-0.1852001438658989
-0.135168169814967
0.3453288500986696
1.0850332532855065
1.670333497546194
1.928394742074562
1.7281273448247276
1.4246769972432516
1.0197259590958718
0.6157965017370738
0.30494320393953056
0.12301411114840374
-0.07391812433329265
-0.4151867708633034
-0.6242599264157105
-0.873437592088747
-1.2051386902723273
-1.2478944412862665
-0.6310253639695615
0.4196323148448553
1.2501317016463684
1.4206359306720673
1.2814034022033165
1.0584577631104584
0.7983500032842181
0.4996156882872801
0.26920637191011954
0.12036820179057228
-0.03253957907124395
-0.23156776030742318
-0.42721936087832313
-0.6770906041365152
-0.7959235887189171
-0.8631550568363225
-0.3734513155245537
0.39939486918388
1.4915287782936058
1.9691380544597576
2.0485767491170543
1.8888050972763293
1.7006476988140276
1.3973144318950903
1.1112715252753331
0.8176730633405455
0.5776674908720435
0.3171859782358324
0.08868213538352834
-0.09631228985183635
-0.3130390631623121
-0.5585119720904103
-0.6758847968784126
-0.28010182038680026
0.6726199016983893
1.584652822710619
2.070462497198245
2.0711362084921157
1.8901637977299433
1.4820507802019294
1.0721183425409992
0.7470554768339956
0.5298788334104929
0.3193462197790711
0.07821400026773594
-0.16609217266018284
-0.4639960613219597
-0.6172143839621601
-0.7570429307800363
-0.6953101026308292
-0.23662766835918653
0.6674680615475594
1.568727723902698
1.8663688020218363
1.7390954515274513
1.4783948178701851
1.1184427802340748
0.6700286760140202
0.5353091240140293
0.4147840800426758
0.27338553496538487
0.10439933733473464
-0.21467738687472795
-0.41189364553811464
-0.6705549975668783
-0.926890808734813
-0.9389518311537477
-0.2902183812631073
0.7709418997572409
1.6705369223554623
1.9514109396004369
1.937013684119789
1.8294234172948016
1.5870870060411164
1.2367615205279165
0.859739316738065
0.5828085649805205
0.34498866269926787
0.12894623510039757
-0.17044501068859985
-0.32757341054108513
-0.4913836282402222
-0.6457589206297498
-0.6334646512529151
-0.010095160730556663
0.8970511468553285
1.9370391963934477
2.3415741000000003
2.3342515363669283
2.1756132354579756
1.8841186125776646
1.4943254736881462
1.1493426941684763
0.918146978053676
0.7273365034151942
0.39592799978794163
0.09385800811876778
-0.13663538986730067
-0.38598771885688754
-0.5988781528522189
-0.6416584822850808
0.0008443902093424605
0.9707419318778947
1.7464803560780715
2.0613593793457294
1.8977680480171044
1.4876741891211909
1.001988718519967
0.7148436226195733
0.4182700823285936
0.21417245855394493
-0.05597387530994424
-0.403180960969037
-0.629243433408367
-0.7223745258882439
-0.7738449129287224
-0.6178277725741065
0.0438518152148446
0.8670384902731478
1.4411204433875882
1.6364866390302273
1.4710499521616804
1.1449719881212364
0.6916871329088985
0.32613999396184024
0.09026423275344059
0.05312286990739017
0.012759611570503914
-0.1699567183784198
-0.3711988695118253
-0.6864357442300012
-0.8125170381974491
-0.3421230640988733
0.5689056765244769
1.364869458277301
1.6797012376141052
1.538306528281249
1.1548894943738752
0.6816264394851309
0.2690628405614294
0.00887698460689508
-0.20387854034250924
-0.4506291449076306
-0.6568594570332025
-0.834258995178659
-1.0077016920191184
-1.1056973990313554
-0.8203492273489175
-0.06233600364832348
0.883691470648732
1.5359203547522164
1.748970786853108
1.7154642531719935
1.6155683850384657
1.3526419423850142
1.0274206971391155
0.718391462495539
0.4561732596385318
0.270195795028824
0.11744031947896821
-0.04684416979428495
-0.2965844515676118
-0.3929349350533149
-0.05839703224559342
0.8488983478322085
1.866570720776659
2.392569388765935
2.5498081084415323
2.439467806681864
2.1451844679655143
1.7638652017512615
1.4008452735656767
1.1048479074205648
0.8232042530373554
0.5314574503040728
0.24769891207460906
0.05366520735665298
-0.14036849901994636
-0.2547602252500938
0.023998646455017147
0.7035485833777728
1.5446197672717639
2.1229280747169192
2.1315482627416302
1.9981713212209957
1.6860184536599245
1.3438491568623978
0.7902493624291226
0.45541619095064134
0.34799861590749837
0.15150458432764236
-0.12103830470320391
-0.45115547444276505
-0.794837867677507
-1.0011944893452343
-0.8950904928678138
-0.2889469928958639
0.5339616569171441
1.1846472135390984
1.355731821257403
1.203014341049219
0.8933812650493006
0.5031317016073009
0.1006469880067968
-0.23324170344828354
-0.4022278927444113
-0.592422178629953
-0.8943381399774628
-1.2726688721363375
-1.5873561
-1.5873561
-1.601753150853506
-1.050049591468481
-0.2689578268637022
0.7664236520712953
1.0378877127098582
0.9156499584172616
0.8056782015911004
0.7301449558914297
0.27871904118825513
-0.05871683746055223
-0.24878371104305239
-0.3412361443339452
-0.45113952174052757
-0.644094837449683
-0.8402683097946695
-0.9793454450785816
-1.0969536802625268
-0.9545523797923048
-0.42690080940126834
0.37576339385031987
1.2455914230623628
1.6899499863330334
1.7095646824550956
1.5356882357726889
1.2468114540189887
0.89510469545508
0.528310876717159
0.30922966324493745
0.23000671063386152
0.09588350891257956
-0.1369982620658894
-0.40554221238874405
-0.5628062041410812
-0.615340509732385
-0.5519919511830402
0.00502409492737832
0.892217653558366
1.5794371666229594
1.8372466520222992
1.7636836502933246
1.5907501704437923
1.2527777418444914
0.7328746780497203
0.17386126391552842
-0.09296160776527886
-0.2929148293356573
-0.6662996661424068
-0.8650928223916673
-1.1425762337516299
-1.3074277461939379
-1.3624153103027732
-1.0470668050872503
-0.5008012519725995
0.19003232955475638
0.5897726152945747
0.5674148932200073
0.3733941433069733
0.0958864827541632
-0.3013220570105682
-0.7586850000555758
-1.0783176965618653
-1.2568084907448878
-1.3534259078105297
-1.5126650832264223
-1.5603222
-1.5603222
-1.5603222
-1.56773651204149
-1.1023757653985484
-0.07987313460926837
0.41475583138640876
0.4370375204360107
0.22241458916076967
-0.09185844034068513
-0.4905365055498281
-0.8887234377925572
-1.2123208820629854
-1.427932796507638
-1.5656264929024153
-1.5768444
-1.5768444
-1.5768444
-1.5768444
-1.571621220491312
-1.5278087033297958
-0.7547298178288421
0.05752590801181606
0.5547507530336626
0.6621847709623065
0.58336584947441
0.4206509239178884
0.10857224780115488
-0.264327955435578
-0.5778573183735887
-0.8518525632210063
-1.0791785060102894
-1.4072219162144348
-1.6113914358243062
-1.7045031000000002
-1.6815621593531522
-1.4762752424987202
-0.5623522869773947
0.2326556406041922
1.2160343863931344
1.6934365029002443
1.695898047204041
1.5130503172572263
1.2170777859241004
0.7897571859600985
0.37369385584664955
0.13441007982388917
-0.02376790556375502
-0.20226553246286408
-0.4350878129815568
-0.6178557736911581
-0.788648456819537
-0.8926789989044626
-0.9249246660880199
-0.34848218208842874
0.6060098388188423
1.8753052574355122
2.563595932245813
2.7572678456295936
2.4508619092361106
1.5668886111423486
0.9145781800064849
0.6859174172190025
0.526401904322546
0.38135934680598527
0.22736401639174292
0.0987286099371642
0.021444293790428545
-0.08688611959775094
-0.20592102795739306
-0.21866991520207893
-0.02351875145618837
0.4163818224348834
0.7324503662164616
1.0285557527722025
1.0926297016295567
0.8413683583448688
0.38029957738678893
-0.047357088427626925
-0.3786676043774016
-0.6860406091047477
-0.9181986669933732
-1.229794934122732
-1.5414671410960756
-1.6504352
-1.6504352
-1.6504352
-1.1842586978905005
-0.3848720117962604
0.2598232032216391
0.5164450842025139
0.5027419741330088
0.38934481408890426
-0.03854510294456384
-0.4185301263242995
-0.8552531744412527
-1.0649681064470289
-1.2938022619937157
-1.4711816582672146
-1.61439
-1.61439
-1.61439
-1.5413073303705087
-1.2146569209952789
-0.31040463452838174
0.6423582308385148
1.0852370202536894
0.9075573258961152
0.6634661598752787
0.3699514478868033
0.003384883977299795
-0.2320753495204111
-0.5979954013368151
-0.8666001406566047
-0.9667526253021013
-1.0830516875600993
-1.1750435568705113
-1.460152136408815
-1.5693335
-1.5361751420281444
-0.8989831458557063
0.14087705042684406
0.9686496207306599
1.206122520338573
1.117688803315141
0.9138722517750825
0.5583709534759256
0.1592335367732987
-0.21331838530899014
-0.349180664483216
-0.43747637890932617
-0.6166509913143071
-0.9112647020130399
-1.109950854449205
-1.2751818232464944
-1.380017228865772
-1.1838521029824864
-0.5544321451308483
0.2649577439594786
0.8632249822010398
0.969611175214039
0.7653414757490966
0.44822617096912676
-0.10516044818896174
-0.49007344621450466
-0.8035950020541591
-1.0632112562879192
-1.2137995409527178
-1.3765257347877422
-1.5704384626122663
-1.6760009461566883
-1.665027540654515
-1.450508607848104
-0.7490496524060186
0.2085387841651969
0.716637074265902
0.796600142382991
0.5571818711414327
0.09746632385396381
-0.38527656259090315
-0.7576484320699086
-1.0252813260814986
-1.0993636358129555
-1.1943192658041717
-1.3856979929957356
-1.5647272979791338
-1.6594465
-1.6514027147492303
-1.463640356282702
-0.8063067390902945
0.031074909972862663
0.6341522453087047
0.7960732989324072
0.6555250678218518
0.42532593784022193
0.1692887828738526
-0.12136236819994589
-0.38155040252542816
-0.5445064576004286
-0.6937094786411109
-0.9090516216074149
-1.084110508195421
-1.1781558202409914
-1.1587964040080938
-0.9748208817539457
-0.18621864114587272
0.7699489221362423
1.413348152592742
1.6764897800412155
1.5895205301202533
1.2793939634275016
0.8679975936930466
0.46258264692985596
0.15224899220628257
0.03332026421308218
-0.15262098124968576
-0.5147127030010503
-0.9637152813638781
-1.3457385719457857
-1.512627050105647
-1.402651840527169
-0.738332420555896
0.16878475388741832
1.0143189284831826
1.481572562950133
1.4144170140602454
1.116274429746344
0.8161774562348852
0.5285037393217871
0.28480263107980297
0.09077754819333772
-0.10804011910529307
-0.4647887543803559
-0.8449080781870705
-1.3101615964532436
-1.5312342256775107
-1.6712026224568706
-1.3627699669502116
-0.5927363440581143
0.3742891940376968
0.8760947688727391
0.7933003417117932
0.5468315507087592
0.33435957398140276
-0.10115783648210436
-0.43035819341960047
-0.7423484540709275
-0.9149804617272753
-1.094573659239211
-1.366524280512428
-1.6099242263419304
-1.6744639
-1.6744639
-1.6393806114137515
-1.129064867177547
-0.31859172957639864
0.45500494932402413
0.47730226591607217
0.16905435653581585
-0.14954492152651178
-0.6339373272998561
-1.0518166056809155
-1.330608449638457
-1.5232422958511305
-1.6235654667589148
-1.6519356
-1.6519356
-1.6519356
-1.6519356
-1.647982557368193
-1.5090847793041404
-0.9235150184370978
0.17177839114197735
0.9572241228944753
0.8771054708345041
0.6670323863774502
0.5343594415093651
0.273164907910896
-0.015519843288123288
-0.2800281374558099
-0.47257140375773105
-0.6093217844286986
-0.7379443144759888
-0.8785121640827881
-1.050188114409857
-1.1330155250429048
-1.2533239413779067
-1.3149422038794456
-0.8865153014678325
-0.03745071249305487
0.968999718764253
1.537868555716446
1.565281399286002
1.3594589806191633
1.1029526058614194
0.7611869765069539
0.43643786488878844
0.12640178887870826
-0.15094376304702248
-0.4136765447080665
-0.6193936435473144
-0.7772500279004246
-0.9125357953871929
-1.1141386553413326
-1.3389007635133414
-1.3530827006820783
-0.7002925009224746
0.11886255979579141
0.7809151391164466
1.0949353878209065
1.0454562215248095
0.8701987768236309
0.48714094419383536
0.043189124313824545
-0.32269761201161185
-0.5485660508458435
-0.6535742344648117
-0.8002077604511264
-0.9859749614612443
-1.3490705137201524
-1.4651610902365155
-1.3507947591875367
-0.4965346050630626
0.10618544687969389
1.2349258393078244
1.4932378467520182
1.1941010390439395
0.7208663501860917
0.2958549480799416
-0.1106623059672739
-0.4378183495208484
-0.5986175315848137
-0.6835818725995697
-0.8839968833895647
-1.154938924019265
-1.3743773085031163
-1.4879930501352996
-1.3998203704161027
-0.8016455669580348
0.08103095379271275
1.1593170778472779
1.255522528373989
1.0378002939332773
0.751699624891913
0.4548576825782631
0.12138681177687252
-0.21493952787580856
-0.3398763140977381
-0.5762623688679376
-0.8043459393154061
-1.0691215813738595
-1.176600348529522
-1.2764465526544857
-1.2268171978924332
-0.5198831651075908
0.5028611048935141
1.541529326542901
1.9887064682469924
1.8367307180531176
1.5365562845747749
1.1761980139135861
0.8343525312301451
0.5739939144644975
0.3789592577780516
0.20425050117220472
-0.01965454985261808
-0.27093744789521
-0.5947307514414388
-0.7574832323701265
-0.5975077733676165
-0.035356732521254736
0.9738853169752724
1.8393738438995495
2.0009615324726764
1.8908482289700648
1.6749335163374173
1.2543456033393248
0.7499461526951725
0.4178011462193585
0.1936994242629629
0.006291281941742305
-0.22554717973370428
-0.4231404320692632
-0.5092715210337873
-0.531580765338286
-0.2581224673314832
0.5386051746192871
1.5348948711398553
2.3223168412490445
2.283545844821548
1.930596320427262
1.461281861276766
0.9764175495234103
0.5454611813221547
0.30764127904081356
0.23413500855206565
0.11086177696315708
-0.1810970659064259
-0.42549848543450175
-0.6695927288059003
-0.5773252533177147
-0.059258255416620276
0.7463566580723364
1.542470650244139
1.7927955413015508
1.555613513222911
1.1607154248771145
0.7753771464996297
0.4474045581046675
0.1195435752256241
-0.11117170663634204
-0.3768445560855381
-0.5795254155201199
-0.9756393381388453
-1.2119678821922426
-1.2557915676179898
-0.7451817885057157
0.21990181146542703
1.2699955945798203
1.5759554780931115
1.415323908451991
1.1817666005692362
0.8674675752117973
0.581020503633999
0.2599507228347124
0.07879705396214942
-0.017343205751343488
-0.15261970052197288
-0.2903246651953073
-0.5458887209234261
-0.7113100345470402
-0.5635207490620766
-0.0036592879233129094
0.8850954439972893
1.7304542752831837
2.021314872240964
1.9693574000349978
1.7180137759525638
1.3508024201948345
0.9126775652915664
0.5924223939993691
0.35642556698836225
0.15496945186189898
-0.012555914891630736
-0.1467123149400518
-0.3237348848024486
-0.466940538656152
-0.258084949730101
0.648821721180707
2.036771241071926
2.4185588898193524
2.4224426304656337
2.2015043419595126
1.838994260129438
1.4190307840388834
0.9900459464475592
0.6464878293917511
0.36339272864347766
0.15337757806345048
-0.014282669340031896
-0.2305573340733712
-0.360634615628903
-0.47324801086677365
-0.47118562931274277
0.06531718075289739
1.0106956938067408
2.0474913842957534
2.390613823388045
2.199793027769876
1.8566136726998375
1.44592661275012
1.0713301633427668
0.6656556112436276
0.45319422559436373
0.3284753647136987
0.08336984254816372
-0.2785422607886888
-0.6179429453111545
-0.9872341038982575
-1.18216687691805
-0.87907535115618
-0.040378093873702614
0.7370271077420028
0.8541700049840963
0.5669814285923835
0.26495851761081335
-0.10025740047921743
-0.4578443912095716
-0.874832968274058
-1.1641765367331651
-1.3281633839521663
-1.4345033013446795
-1.544777660857907
-1.6638499992840623
-1.7045031000000002
-1.4471783137742227
-0.7354592532954672
0.053647425306449614
0.6414985540136597
0.6204568328828554
0.3695218027420338
-0.0021951517034743406
-0.41046305720615217
-0.7744257318322902
-1.0787767181786705
-1.1705573378273377
-1.2506342710154166
-1.403694065415867
-1.4870919279334955
-1.6369183
-1.6158965532899296
-1.383441690916069
-0.3947427967647158
0.6019794272338524
1.1867737069587112
1.3520215455780773
1.2210787692656804
0.993559818463535
0.6397761162008623
0.34161690017371943
0.10983897164778683
-0.10780296817383125
-0.32337568661652255
-0.5404172301703166
-0.7188260774926807
-0.8949168842547774
-1.1130188582948775
-1.1266171500464262
-0.5005043408311396
0.5004906479503596
1.3303016361975424
1.7338791621139678
1.7839366559215104
1.6160242111049916
1.2555789876141406
0.8584632903368585
0.56493021275094
0.45435562540818575
0.41680313704582106
0.18147964834915195
-0.12572180090263319
-0.44259839038030646
-0.7042238731441182
-0.863101295003025
-1.0219787168618981
-1.1808561387207712
-1.3397335605796443
-1.4986109824385172
