-0.67367547
-0.8272237438468191
-0.8554589667156982
-0.5305228813116409
0.11373928355929858
0.9129796874803622
1.2607880016821817
1.065677019813158
0.7147715887387
0.29405450434044644
0.060049425743179646
-0.10502221230750239
-0.18255041769276442
-0.21955922873434178
-0.29495218047754584
-0.45257678753115826
-0.5491172704107958
-0.7200083677576951
-0.7882013665622933
-0.7029949272231775
-0.23917890647966433
0.45627048754907984
1.1265249259453058
1.2995195466357792
1.0195522830053776
0.6539093377128672
0.27296547071312616
0.02338985287330235
-0.10090765932971332
-0.14150593701273906
-0.19280397506524488
-0.2957942421544192
-0.43835274174050487
-0.5708128224219112
-0.6847215723794906
-0.6643806762118462
-0.2685502647900613
0.4101603586298667
1.2053637510291102
1.3295827201639248
1.0895293874190812
0.7623041167515853
0.39212233695616816
0.1336383777689438
-0.010706681652167274
-0.04313007271091368
-0.08918537973709594
-0.20753201609829777
-0.3313353422783756
-0.4313182003248687
-0.5501528054977373
-0.6283202665652257
-0.3433640254576521
0.15431082119852624
0.8647827218741058
1.247522395653962
1.082015068253076
0.7008086514104782
0.3489773641465343
0.06191503716418352
-0.06391725161287089
-0.13907779332469394
-0.1909411013380491
-0.2738749262396363
-0.3772906518399244
-0.5189420074828068
-0.632760948417456
-0.7052661445268912
-0.5836170261434513
-0.009330086764727519
0.6373869739710336
1.0073839
0.917887747322516
0.6022592767763806
0.25439229980764266
-0.02358711163518073
-0.18755823202677652
-0.23227158663140327
-0.23948871508165553
-0.29425995810100264
-0.38349315019584623
-0.5152851869310948
-0.6564845042878741
-0.7934005507560967
-0.812919963303579
-0.5395998807950608
-0.0014200644480334423
0.6716008753757025
0.8990699568421677
0.7261322913225924
0.3666869688553606
0.05279631360007006
-0.16741240884624203
-0.304412057142657
-0.3542504631021896
-0.4224803574472558
-0.5240930986331809
-0.6657998760165252
-0.8503496100954896
-0.9970530331559028
-1.07920709421255
-0.7331695044546358
0.0343134524794122
0.5645365176022157
0.8000104063266847
0.5796305339077369
0.29923971824319395
-0.004299582453760276
-0.21547050067370974
-0.2986257967021544
-0.32222743815820865
-0.3772680113507843
-0.47577481792797993
-0.6045052838795184
-0.6751441911916355
-0.7397993797311002
-0.749900087042272
-0.31438780003934885
0.3190900765602807
0.954578872447711
1.1119210718490138
0.9232334450687876
0.5257615454843866
0.28990203420030114
0.015365478243407454
-0.07040161574195654
-0.10682836733456445
-0.14326067067735837
-0.2618077136782285
-0.3797950873622776
-0.5751550591412863
-0.6609221563544609
-0.6684928729286982
-0.43009670730641936
0.18491611132560548
0.8134910801129822
1.0734997411821476
0.8801752413538935
0.49325375406791233
0.1609565046468426
-0.10447229320167123
-0.2385189734252327
-0.3105522
-0.34016542626131097
-0.42169508675369755
-0.544174800950396
-0.6388026509655463
-0.7586480389581538
-0.8852198896768843
-0.7735107268347127
-0.276655580483021
0.4724468172900615
0.977963785747437
1.0186641528771143
0.7806952696334079
0.42374370637092457
0.126829590634983
-0.061614662362501495
-0.1308007495848385
-0.15958439488602807
-0.20304231205820034
-0.29701730322896036
-0.3976513123829589
-0.5293091359837133
-0.6031995571367873
-0.28198275525796246
0.3892402233727803
0.8714149959305354
1.0854968319970324
0.8682293589153998
0.5337377348325016
0.21732669845551544
-0.05730626042697851
-0.1970600055242987
-0.24712952096535817
-0.3066931220252839
-0.4203510302686781
-0.5820356661836174
-0.7964582401409758
-0.9486643736722338
-0.9946088590390606
-0.5832854070884871
0.16858997256975414
0.7915914213122087
0.9544681410527013
0.7187698658710243
0.39352948810245797
0.07570528767842673
-0.12262316797664875
-0.2632444790560565
-0.3105522
-0.31352095634422134
-0.3867514148667743
-0.4599453710066094
-0.554262854727611
-0.6009733144439366
-0.4809312198992252
-0.02990717160752221
0.5813574133565236
0.8920829560714965
0.8342580870180315
0.5260186856258287
0.1939965375612131
-0.09190806954421182
-0.271085973501592
-0.3471493395129447
-0.373256646713486
-0.4105828737360936
-0.5006383189508276
-0.6330268757844294
-0.7508820920491294
-0.714288822330664
-0.16784617160621035
0.6001610085856413
0.9471659498767202
0.9996990667462828
0.6960274817785108
0.26165527050364534
-0.028380617911048373
-0.16547713897010108
-0.20232213514231862
-0.20426704
-0.20426704
-0.2787782485262331
-0.4356297519113598
-0.5468279002532663
-0.46543023130545125
-0.009693221675948438
0.6736272593205063
1.1497344597366117
1.0075416718889862
0.6929642397297574
0.3349996180440357
0.008852854828526102
-0.1869113011662847
-0.25740962
-0.2579066919570295
-0.29156009993752496
-0.3502306921749714
-0.46478026104660997
-0.5587874725637041
-0.4596661595136669
-0.012827376810281677
0.7995766747937672
1.1163187312476113
1.0382074123749974
0.6472659724326217
0.2964952361923084
0.020607407035130275
-0.11575901418428587
-0.19278460150254176
-0.23652484110565664
-0.33147534747700946
-0.43487315749174843
-0.5545296269490346
-0.6442017130269098
-0.41192675458627204
0.10565723871706433
0.5909010732151431
0.7977732843563112
0.5753638508392714
0.2176301493299671
-0.09555738961357263
-0.3452196922183529
-0.48938866694876076
-0.52312253
-0.5423517566847857
-0.5864666958241049
-0.6679526801568688
-0.7794560964114583
-0.8165775724540647
-0.5416066103688042
0.03358292114174116
0.6887047680763214
0.8375684391250621
0.5982417287070231
0.22526013632926994
-0.1216148494085012
-0.3552592529976837
-0.45805483239555983
-0.4639022051356918
-0.4576010818976403
-0.5018448119902934
-0.5874886191256179
-0.7018562708206071
-0.5939763945890645
-0.11640564432173578
0.5319821358060534
0.9954132801333051
0.842834704676646
0.46422673545022314
0.08328738414971569
-0.13284569404908803
-0.34462631608693867
-0.3969095128656274
-0.41722975219773045
-0.5116407310360059
-0.6197448382741867
-0.7185370252692616
-0.7677044846046036
-0.44499423078032024
0.13109824824460878
0.7360970041917785
0.8665406011243324
0.6496710814129742
0.2650623592877752
-0.05118431678932093
-0.27896398308008563
-0.45519249140527773
-0.48668568170634796
-0.5457698074537733
-0.6438598182043896
-0.7489324522302861
-0.8044175496544028
-0.7152846209499495
-0.2049537059846931
0.3659511631353828
0.7342854235699656
0.7507032299425302
0.4366853943324447
0.12933901655500468
-0.14647247666705218
-0.3428166038758276
-0.52312253
-0.52312253
-0.5945157148662341
-0.6711565379818367
-0.764694169164431
-0.7789716084715521
-0.5195808569423837
0.10341785485045302
0.6465140894137718
0.8361080379998308
0.6235981731599857
0.2672958560167565
-0.06717037584011437
-0.30627054919523217
-0.40423781284725263
-0.438536816026946
-0.4637978253193698
-0.5371615338627156
-0.5969358341711026
-0.6535496608687075
-0.5139232272901291
-0.03581608724098162
0.4948768404899681
0.7931389491692258
1.1927239903444042
0.6274958167582153
-0.09267859147750723
-0.5241192237471788
-0.6900108392992337
-0.7348251433806827
-0.7886416530868469
-0.8686004996043197
-1.0860726199097153
-1.2564981065594318
-1.1649202709171318
-0.10676336701587077
1.099127767616262
1.7470146752973912
1.4913267269962391
0.8135839980820405
0.15725998580035755
-0.5640963403975068
-0.950180815700278
-1.132927861839981
-1.2570147174973394
-1.3703460385755792
-1.5055108174297804
-1.5790402091949083
-1.1058851278317594
-0.12330557375747497
1.0933743971491738
1.6758061148640166
1.4488664534325137
0.8870046292593313
0.2768181403510491
-0.22322646794817375
-0.531422798072596
-0.6767246444149011
-0.7839335139139906
-0.9567901967873162
-1.1853399783824814
-1.2629026358056716
-0.8929705996131486
0.2272312846108313
1.3220869732073623
1.6588310956644623
1.36142222732077
0.7198873155622232
0.05239490823400581
-0.38250701493002526
-0.5976902152285091
-0.6741129792754399
-0.724893239771198
-0.84156361598256
-1.0319540259773368
-1.179502218337718
-0.7101818098336902
0.23746675712593257
1.2432954608849653
1.7543450349122913
1.2638283661846832
0.50831215953425
-0.14137397031489551
-0.5410162915067874
-0.6658046870168136
-0.5852819408813625
-0.5351830862548992
-0.645390422072825
-0.8004393960015912
-0.7333531719252719
-0.1384820980188538
1.040277823064277
1.7903382979796283
1.741577031786363
1.1703529756880138
0.4622197478364055
-0.1402540587752616
-0.44776046809126574
-0.5867118509267236
-0.6674387238527429
-0.7746475933518268
-0.9633731456744252
-1.0972102100594092
-0.8441969955713688
0.0070952078332583435
1.1615863965093278
1.8881269848796791
1.6465148108549916
0.7677756003148336
0.05835939130425355
-0.24182543683754704
-0.523212741790472
-0.6235906679076396
-0.6606289136126682
-0.7632428652714406
-0.8628123072021581
-1.0129047374121254
-0.621526186088399
0.3031350274281229
1.570370365906166
2.0123981249344927
1.762112903306639
1.0435459578957524
0.24953699603871454
-0.44154490268305296
-0.7729683698794065
-0.8968434091333525
-0.9714041878045586
-1.1207678428186894
-1.3072481529280982
-1.4867553567629892
-1.1473239468383998
-0.13337799549520035
1.0752687624474424
1.558918153967491
1.2922253434176072
0.5395698036022579
-0.12672343489523485
-0.7129348324616479
-1.0320245418616416
-1.1033149574544712
-1.1509985888959593
-1.2415827807884974
-1.4181146256465869
-1.5594540914069897
-1.1532804496635245
-0.12813727897733573
1.053702669980932
1.6098787382764168
1.1634345806354434
0.2818600678958088
-0.4903872002401792
-1.0496789703872387
-1.255326456347361
-1.26840062810268
-1.2798659084908264
-1.3763183582154865
-1.4721004917227551
-1.4938886858454081
-0.7706968276642698
0.4738610833395155
1.4148525687618458
1.8281042837664543
1.344622538093779
0.7603735739509951
0.04044899074552674
-0.535123713970712
-0.7426079591018282
-0.8242435430026518
-0.8658820202185842
-0.9587724974876283
-1.0771535481533414
-0.7469498386049833
0.13065904735955683
1.312796390429025
1.8414365668845933
1.5404826713823978
0.7510947991561392
0.0010682341654124072
-0.6344375294455845
-1.0618679879277457
-1.226127737821554
-1.2977840274280124
-1.4029899626530562
-1.5783400371979828
-1.6895290824495959
-1.2061575548329928
-0.20565037850442447
0.9214407978856135
1.2519015261276953
0.7090500213309513
-0.12703295497898265
-0.9601353527278323
-1.4552509086559493
-1.7037878569627367
-1.7454019
-1.7698262801557496
-1.8560502126595417
-1.9781124978744546
-1.785744877652049
-0.7854862062051842
0.29094712593959327
1.3482735106062025
1.180936716145037
0.582114571427671
-0.47665741009421225
-1.0031538710869974
-1.2663983954411269
-1.3211531603613673
-1.2767757311260797
-1.3111438821149066
-1.4104433928231936
-1.4984948220805934
-0.8765605009877209
0.30219946142719323
1.7208439751080977
1.9782558546394269
1.4231339589382537
0.37909491138777696
-0.5063426368707095
-1.059265970235078
-1.2906425918035893
-1.276932716836857
-1.2884757860207086
-1.3831872924519417
-1.419658623808486
-1.0244953286318668
0.19359501844671995
1.3804591756967206
2.012955675934984
1.7296235506790003
0.8716368598314195
0.038349845698798846
-0.5992719388352231
-0.9233136514048073
-1.0424197510171933
-1.0545483999999998
-1.079640470492619
-1.1649655885890517
-0.8935830159579231
0.0644881317371383
1.3580078670973448
2.173457949674543
2.0249087924233202
1.2852372995470032
0.44762096747964336
-0.1774239922193658
-0.6065657140564419
-0.7734912680496198
-0.78883545
-0.8466594233846627
-0.9717052460827554
-0.9094867217386339
-0.17953507693304316
1.0586958482069841
2.11789287785756
2.2200704711035866
1.6083264798435772
0.8015574160133034
0.0026694674045898426
-0.4723943961048889
-0.6779004257552779
-0.7677016662310612
-0.8703428496816393
-0.9549949761040347
-0.9594434421346568
-0.21855531256487992
0.8079426089602055
2.0088682803661984
2.3428543787799256
1.8617687079493126
0.8155860571196378
-0.0705824180034307
-0.5919560691747897
-0.9333224575729729
-1.0831396312248123
-1.1809832587613798
-1.3164996313931177
-1.39197320940128
-1.1304656150086467
0.11197842446195361
1.3818017223577925
1.8642971499913576
1.442711407871202
0.6906823707780962
-0.05257193862259432
-0.6875704683350381
-0.9836752243478518
-1.0866039561084384
-1.1350835817416225
-1.2238168546675152
-1.3380262521410484
-1.1553908341512258
-0.2170582740531356
1.2139505781467226
2.0277215
1.6283494406552559
0.7305148463825974
-0.11015007445496955
-0.6676572325248726
-1.0578639622487818
-1.1672892017187044
-1.208482688304757
-1.2972268822497977
-1.342333816623019
-0.9643381294668116
0.15336268572464162
1.281915186880599
2.0732822472367727
1.9172220239788533
1.1004294116883058
0.19586046536301727
-0.5575862449306159
-0.8699602199869283
-0.9367646226273734
-0.9482632
-1.0131909917255781
-1.1337560040838401
-0.7827749298086935
0.4956554504386145
1.6595915015536398
2.517374746645547
2.159263983694387
1.1480544006165774
0.4527644895442755
-0.2790463063509166
-0.5850780063045673
-0.6820314596355136
-0.7402446938089883
-0.7974084594172044
-0.8778358902857877
-0.3955504844095967
0.6991176682064603
2.052775956543677
2.670341675140836
2.3360063368934525
1.497865577641675
0.6239073604727927
-0.050746466413698336
-0.4911322327215398
-0.6483149959202021
-0.7276296401452735
-0.8666759370285266
-0.9235998009849757
-0.4896727543257849
0.7374541554011504
2.0683018008323426
2.6099621767103693
2.235402938085496
1.47305598599378
0.6238376100312517
-0.128653039973133
-0.5178567901263608
-0.6920066566389558
-0.7938239193373845
-0.9102306248969357
-0.9539683770125212
-0.40561383661345507
0.9952446049355818
2.391073383122752
3.005518260472247
2.679591018093392
1.8849526677347241
1.0257637287822696
0.37483853453233706
-0.008898432287903074
-0.207766009320411
-0.371845643008172
-0.5193652836379304
-0.6884671415268321
-0.4852105080037712
0.5355646656697375
2.0040560486495833
2.776708911554585
2.61959986167381
1.8284505177346286
0.9036249185553692
0.15598267682899247
-0.29298016721396286
-0.47544621743175
-0.6113879084895529
-0.7192306501449768
-0.8892765321973903
-0.8896408347489724
-0.11172272949941921
1.2472383491385033
2.5319889384957825
2.630957205290416
2.0091458170684757
1.1346138870313078
0.27172271829651656
-0.2875690161747127
-0.6880304721528953
-0.9041190652726614
-1.0386790320866701
-1.1604212373740155
-1.269182567373623
-1.0135102780755998
0.3258453635965565
1.861681905993834
2.5101438917469654
2.091030682661046
1.2326516529354332
0.3879238906950696
-0.3336288127036889
-0.7591635627462114
-1.0008515419378339
-1.1263925714140341
-1.2506311610713714
-1.429233120533789
-1.3541718160773077
-0.665456237913183
0.5624393924860278
1.859027019852226
2.129431262867323
1.5242741625776621
0.485104109089967
-0.3333414694842505
-0.8722108771766441
-1.1178107732555393
-1.1781988979963178
-1.258006493775169
-1.3672516527083995
-1.2714961223830237
-0.6077250828326216
0.8741648666960763
2.1019530665106108
2.4419453842291814
1.8373418823592056
0.8580813727262367
-0.013834914461578252
-0.7141661401823306
-1.0087470703753856
-1.1736319811833915
-1.2871172615899225
-1.4115717800968732
-1.4910533384024596
-0.8764171256747105
0.41829375697315685
2.112436000449468
2.9028596870118606
2.548423250715592
1.5986292086528615
0.49236743606842065
-0.1988689821446894
-0.7255467729582078
-0.9716285702858263
-1.1176644614136593
-1.2861533399647145
-1.4259852953385022
-1.2388289917985658
-0.10474899579478127
1.6623099985417276
2.757544628126093
2.7572244787052567
1.9638210477530158
0.9845259422170283
0.047836772928752186
-0.6151664687690592
-0.9427449181461901
-1.1144802836183576
-1.2232350983858002
-1.3399977410256994
-1.33406329967455
-0.6466984589955134
0.6922939274810582
2.1951966333679507
2.7774159289143108
2.38410605794467
1.4561058754158838
0.40328246024226433
-0.41808188675090907
-0.9710957629698833
-1.2379653700426645
-1.3894698434506652
-1.512618993075515
-1.617022102766056
-1.4221628524035557
-0.47037070332963704
0.9104124285040529
2.2377430325878005
2.657820459162817
2.0723175605763062
0.9796040289281
-0.034085231771318614
-0.7473134602697277
-1.1716086147936595
-1.397468883788519
-1.538520683468331
-1.7362228060168714
-1.9653711837254222
-1.7377876699991868
-0.5145215841257551
1.1675975933021625
2.3144708562905816
2.3147113905471954
1.4466662259211653
0.5205086291547285
-0.49096315149074643
-0.9994741807928345
-1.27424730770164
-1.4133156925747845
-1.497169555373271
-1.5783138127780534
-1.7144837085027402
-1.2651842871700965
-0.08716164061483633
1.6100554860283087
2.538404961012222
2.241207274340125
1.2297549510115213
0.33777458012432415
-0.5668947723090254
-1.0530624513323437
-1.3625537773427001
-1.4460486836523256
-1.5697777895430363
-1.6842368454201153
-1.7325261817837172
-0.7171782944937407
0.4252249008541437
2.1032706222648017
2.8717918984113275
2.178938746642298
0.7967855409178439
0.15639991895098862
-0.28218452125720983
-0.5656266464597802
-0.6927371546150366
-0.7366521659660762
-0.7859992061007083
-0.8362304325925717
-0.633318292582213
-0.022746482963681702
0.7993643885465899
1.4140628023166477
1.5135254633762427
1.1963540177181597
0.681090616079973
0.1365112072029489
-0.26543518242182246
-0.475616227647342
-0.5491477345322839
-0.5710725751238575
-0.6199989584691502
-0.622705262665529
-0.2570215716598192
0.5621938329012379
1.2777633811056472
1.6682314690881703
1.4697459999569489
0.9623887295613257
0.39642475840614544
-0.07884661057207021
-0.3305235214980674
-0.5041162398006717
-0.5791918553966396
-0.6361456195967241
-0.7345130031854796
-0.7149965419018729
-0.33988255209527035
0.47505692193227506
1.2860171590475278
1.508901372352904
1.194738698884797
0.6089204800967993
0.1146180988616895
-0.2456036953808686
-0.49790103947943554
-0.5564590515395568
-0.6320477252841656
-0.6892114908923881
-0.7653445826276397
-0.5822904123967714
0.2110219066740731
1.0017527136373565
1.6054589944421784
1.6459855552288143
1.2923228016935535
0.7747612967778914
0.27984153157132796
0.00897231519262115
-0.10924777869328264
-0.16967819480622878
-0.24093087215156314
-0.34289831446679964
-0.4143851906435871
0.08010091524702412
0.9087088838944398
1.9473392206920221
2.082122177928072
1.8076397757910352
1.236457595242775
0.5047785093088558
0.2598028940628469
0.1178018244171466
-0.012221101185666388
-0.10189059475748312
-0.18869793613202268
-0.19694330065078916
0.034010734220456
0.6735632000595985
1.6170012129178406
2.246768469881963
2.045636810859561
1.6053657381923245
1.2190701765440708
0.6343157470199734
0.2998052034150725
0.0959307313627609
-0.01011161466174866
-0.09340500522032842
-0.2033524673996024
-0.1906589691871216
0.1904147486902753
0.9738532349753676
1.9529164165159876
1.5167022125922631
1.1745496165758316
0.832397020559363
0.5199785265283623
0.2486364348742387
0.03450754579665084
-0.06522287799356946
-0.18348105790319835
-0.1954204842492181
-0.20323374783009565
0.05620610480821353
1.2293280646101823
1.6737898632675754
1.9819048088740086
1.7606247552390832
1.015706608680291
0.49841240761111016
0.1394375346079184
0.0813392275398426
0.0083032970999999
0.0083032970999999
-0.08023385511255525
-0.1664701108202276
0.02993199453331999
0.6153400780140684
1.5317297063183108
2.0563032573353763
1.901308144563823
1.4384256004639937
0.8631095848162451
0.38584859007863237
0.11076981223747293
-0.020374007828377085
-0.13353509432414465
-0.28373880309424876
-0.3433310773863282
-0.13727741697729065
0.5237198162407254
1.3787800505750276
1.810642400402438
1.7266042169220364
1.3173281212856351
0.7914498207074614
0.32065611753960643
0.041176724744356547
-0.09146172430128621
-0.21847895958889832
-0.35905942001323565
-0.4312405188676055
-0.30351035466008874
0.210719342779216
0.996946255640629
1.5253353373314578
1.3526793186615471
0.8554580847799262
0.3079441320186165
-0.07818126732816144
-0.348992775850011
-0.5316854673048275
-0.6080073702839329
-0.7401645428529351
-0.8630606593104982
-0.8022670157711865
-0.2976525958381623
0.49463214552118095
1.150302846485741
1.218899352966343
0.8547817639300632
0.354466526528924
-0.05346156692355303
-0.3819674401117618
-0.4695213483198143
-0.5248308842474706
-0.5692455722469938
-0.7004211879915152
-0.7640605830236492
-0.4629919541347705
0.14588202540959003
0.8629133998310735
1.1762624280143017
0.9043488188034814
0.5097181937410847
0.005328284706637806
-0.26866214735831356
-0.5040499250642589
-0.5895501541889391
-0.6828194928259872
-0.7632044967922884
-0.8979048368885031
-0.8360398629122788
-0.34641290364047
0.354208372568922
0.8420172624895007
0.892200831418514
0.5435008390089231
0.11778915994845253
-0.2770178937948776
-0.5153031849844277
-0.6183970451965513
-0.6573055051645598
-0.7331245925733367
-0.8561614106400696
-0.8318944448820459
-0.49424467284014173
0.06531174956922942
0.5145605320954598
0.6500851189124993
0.3150849556171434
-0.5551083615061372
-1.297686246618872
-1.8656310370327789
-2.0217434
-2.0217434
-2.0217434
-2.0217434
-2.0217434
-1.7647155866546984
-0.796812002701076
0.3008631171906275
0.8650395168810143
0.4146239530882063
-0.3796355331179086
-1.189920328112883
-1.705821545161262
-1.942058459049554
-1.932238796913776
-1.9049238704943152
-1.9663689137479246
-2.0578813860398504
-1.609256480523233
-0.33786121136832387
0.8045564876827409
1.2046839571562384
0.6926866974287549
-0.07592766262285779
-0.6981822554101063
-1.1682608571785582
-1.5375149899008729
-1.7199177998705069
-1.8139524203300779
-1.9529457575228
-1.9398652329623416
-1.5494430971718085
-0.35121943497769764
0.889393721154268
1.2995508414251116
0.848685362719941
0.06435385925274917
-0.7567191002172168
-1.4173498108704075
-1.678064278429421
-1.7678392786244677
-1.8676353978524114
-1.9799746307652446
-1.9760107537817866
-1.6378894912502964
-0.8416458108524829
0.3713525176528112
1.093547597673906
0.7900149127266101
0.04357417460153312
-0.7670443876236934
-1.364149743176079
-1.7325142900100758
-1.894458024654345
-1.9728321819907881
-2.0111149
-2.0111149
-1.8643023715266842
-1.0788911107156949
0.20878260063611176
0.9601459352026325
0.8426877707037693
0.15427860455032283
-0.7050738477067198
-1.2653479353480952
-1.553710128179147
-1.6519148409595732
-1.6409165420235956
-1.6552096097458284
-1.7542084951002357
-1.7025940293214035
-1.1633670340719702
-0.0008881708824274304
1.2256143580520273
1.3197965252786186
0.8078798646486509
-0.040793559318015975
-0.7656300955274945
-1.1386875770157598
-1.2351827641681468
-1.2356819150337421
-1.2932480192408948
-1.4462136365598168
-1.5825694891291884
-0.9444792793167954
0.45912548702474987
1.3174635902077576
1.5130646751725376
0.6454993710587384
0.03927244523032203
-0.8710484328819832
-1.3674010509979775
-1.3599031421677688
-1.3249807766215198
-1.346422556976958
-1.475057130069858
-1.5203715841928085
-0.9373709827919725
0.0953035912174658
1.4297056951418836
1.7792276899650372
1.2055931666833557
0.35275380599403716
-0.540374086946307
-1.0906045490863474
-1.3305976205846415
-1.3734038999999998
-1.3954771720382309
-1.47463744945432
-1.585621553719797
-1.3710724454246652
-0.48556296024003953
0.854839997429147
1.5410877047634044
1.2272038889974843
0.4323509898534227
-0.47468951243456503
-1.1702250689357176
-1.4472649751109512
-1.5155575682741715
-1.4866969830676169
-1.5633340390021824
-1.7089044619234042
-1.6997971394582558
-0.9704507592151316
0.09984454500782591
1.2656243728175582
1.5024506437282492
0.8549305687121933
-0.14932759803606022
-0.8951771184756309
-1.2455043266502894
-1.2814903741421442
-1.187468161442373
-1.0819565658625099
-1.1606323266516485
-1.2888408245336611
-0.866866771123822
0.3573061844123526
1.6361200116426435
2.1564404164658106
1.6013741625265112
0.7255213764515815
-0.10810076266663461
-0.7502054786366825
-0.9393919502197373
-0.9720988232523673
-1.0160283410010764
-1.193965022804851
-1.3237363172079402
-1.2094720863164068
-0.3152497794125821
0.9774366856472767
2.0122009476426843
1.9403561828000928
1.2491397206458363
0.2204406279722177
-0.4360677034948792
-0.7977558775580057
-0.9088480612805958
-0.9434970778920342
-0.9863622926614456
-1.1069370674149843
-1.1528017156133474
-0.7520743097062564
0.43590945120726465
1.7204654761642193
2.1710249426826405
1.7041040242362524
0.8518716365670775
-0.07728182146206036
-0.7335018156266723
-0.9869131619344798
-1.0545483999999998
-1.0743289737715496
-1.1959326181055014
-1.394474066334183
-1.4580188442938327
-0.9316671037369364
0.17575383314969373
1.637918498103559
1.8247669722254023
1.064538807707174
0.1075987611067406
-0.636393694846277
-1.0671001519059298
-1.1917080509618987
-1.1631047274264803
-1.1743004667324326
-1.2852263852052204
-1.357629683932504
-1.0821980874540225
-0.04812884772250493
1.416172781667283
2.122545633422921
1.935828717173703
1.1375554396824632
0.2213543656887375
-0.34972896825984795
-0.5029091876772839
-0.5046908859729928
-0.5341981026360464
-0.6687092939871317
-0.8759538775360302
-0.7901867803228533
0.07752056593731027
1.3972506273702843
2.5189040811913266
2.8265342631264323
2.0383074474863134
0.9978095972636877
0.1778337237405364
-0.3126633835242889
-0.5090953061031582
-0.5245324541268735
-0.5588335787116109
-0.780127355994589
-1.023501029176264
-1.0601382097140089
-0.043661642354658525
1.2831895527414354
2.116356960063026
1.992201937147097
1.0412007535995056
0.05487915582144509
-0.5943637262217556
-1.0040374992206533
-1.0186660348637944
-1.0333371557392674
-1.1564034518377992
-1.3918684087950524
-1.7903100251844777
-1.3470810475416437
-0.22164580464418515
1.1332256743956424
2.018324867958761
1.7988194252822356
0.7910560552189534
-0.46552666282919813
-0.9729676787198004
-1.2139761
-1.1289487506572515
-1.0128228073165204
-0.9736915962899119
-1.088064495739541
-1.1433058851896964
-0.5331843984004703
0.8396664359221941
2.300174595734001
2.818009509007771
2.2837432446567116
1.1047754842434983
0.14536680868879426
-0.36980988992674435
-0.670264919431715
-0.697272616292302
-0.7188628291679945
-0.8938277084512173
-1.0943395240596414
-1.3114002048634161
-0.6886603203224568
0.7284701797057038
2.447945265196142
3.048086959830938
2.5867862702127553
1.5436739892703395
0.43052080314001656
-0.046465364476776475
-0.48697838086509854
-0.5925990136529168
-0.6571089721101069
-0.7941975923265772
-0.9178718873977771
-0.9956743507724293
-0.38045280686871613
0.8768831011147608
2.4031560800392118
3.1083550199847725
2.071695217706554
0.9429233570359131
0.42616289709191013
0.1659430057314042
0.015547019926648222
-0.04301098634705634
-0.06409450691523276
-0.13661428645843146
-0.282219830345495
-0.3592507972962231
-0.15350834564173693
0.47997993015097806
1.1887576957962556
1.5870520388622067
1.4787311413862079
1.0631237431120946
0.4666437518829719
-0.029689568377214648
-0.2541789000515013
-0.36248306732669056
-0.4389252571644123
-0.4870562825273552
-0.6215057481908589
-0.7747701924356194
-0.6677175059553584
-0.13576020107801684
0.6772668059696209
1.340551815984817
1.308865528159916
0.896153880298505
0.27549200997903833
-0.12169456884745022
-0.4223596958113544
-0.46656787804349553
-0.5211464949577895
-0.5359021051488602
-0.6397336039734524
-0.8014348445657054
-0.720268349017221
-0.19750744987356061
0.8506530078273312
1.3604319964305909
1.3132599343984854
0.7947088841403894
0.3479909727863999
-0.1889030241815711
-0.39996125490272677
-0.49221317439097556
-0.5319213956207834
-0.5905942443574929
-0.6645482649563612
-0.7507347937604081
-0.5503904288870637
-0.01167465167307559
1.012300972323011
1.4183324863086917
1.2566976173383284
0.7755520937562517
0.23392356627002953
-0.2147535022795221
-0.4777197961467203
-0.5700575167805576
-0.5962363317572257
-0.6477725101128348
-0.7527584242042628
-0.83134952
-0.6222558219956824
0.023940713538610825
0.8727951637857636
1.3511750347884277
1.223794105905065
0.735874061125241
0.24149533870921908
-0.17005394616548666
-0.40241028037275683
-0.503829362229094
-0.5589930671543368
-0.6466154763065399
-0.7558158998546004
-0.8428328669321544
-0.6067390804136206
0.04996133991917606
0.9230630757736296
1.3361471898654258
1.1411901016329011
0.5875104833126101
0.03708539301666125
-0.4252671837255481
-0.6649404077899446
-0.7257226112702815
-0.73569287
-0.73569287
-0.8213790266932292
-0.8919972128410919
-0.7181001999772083
-0.0687515227274984
0.9040921219760012
1.2702004789706738
1.0493889489874149
0.5434441605142326
0.0008365205688864452
-0.4578871057037446
-0.632090390048646
-0.6725892003105909
-0.68255028
-0.6861645212704826
-0.7433282949482214
-0.6945197869178621
-0.18842789752106784
0.48974751222923657
1.254532717360783
1.4879798423189332
1.2718808715557517
0.4683699964337968
0.19745685683624226
-0.12367075906962802
-0.27674336959355766
-0.3119885921295479
-0.33834628459281096
-0.4175859096698852
-0.5598109419457291
-0.3112557504664658
0.5080077055909432
1.3407027935277949
1.884666977648606
1.697832465110293
1.1522174647004029
0.6279156387906446
0.2010601967502233
-0.052567085332676095
-0.16281238779344198
-0.24472008936735323
-0.32158307587592644
-0.4345690812705048
-0.3860494462124674
0.11228688212850746
0.9610117257614892
1.706098544345723
1.846953866954871
1.5070198838148816
0.9253228003598675
0.31670516853234804
0.02205664875052049
-0.15239658598283806
-0.24562486675369272
-0.296685084422925
-0.42354384939005474
-0.5152345301851223
-0.2032254622614625
0.5416355958533654
1.3360076548387791
1.7000236065059633
1.5733861913804992
1.0865522371663663
0.5177313692560611
0.11502975824918449
-0.09589316798598202
-0.20648560144275313
-0.29414698551847657
-0.4072992587346818
-0.5464239525485806
-0.5139606197306937
-0.0057589747057387175
0.7804560455750535
1.4687174305376431
1.6753164333822979
1.2770077733237284
0.6580665419001923
0.07179448178191422
-0.3315118132333111
-0.5577409121463899
-0.57626512
-0.6021799632179421
-0.693867333429
-0.8054120376971242
-0.7989695538840631
-0.29054999744954485
0.4446844316768323
1.3435147138170112
1.4983456032693603
1.1032291995842862
0.4350371961945138
-0.08846250768218669
-0.41080417951837456
-0.564714361667196
-0.592709781403211
-0.6609936356851579
-0.7685977202420416
-0.8626905235979501
-0.7307658689516713
-0.15774363432284372
0.7840024415424611
1.3973085385418211
1.4215551093407297
0.95887266818782
0.40069904962856484
-0.08222846025140715
-0.3895392399095544
-0.5005956147479366
-0.5503849593952777
-0.6294114118376933
-0.7378420223560637
-0.8530710987987858
-0.6451065870197219
-0.0011195270883113118
0.865329071069716
1.4971893746250156
1.4441474473739009
0.9616437999454736
0.31482272527698174
-0.09218163491066117
-0.3632893267356462
-0.49702427100307867
-0.520525712618637
-0.5924786746695497
-0.6655357020760505
-0.7792899537596096
-0.5539950618398114
0.1621411075273076
0.9186068860648363
1.5229604479183516
1.3157776855895567
0.8167989994722015
0.18513418203852375
-0.21576025882233657
-0.43434009428360965
-0.500902171061947
-0.5329206166446803
-0.5920104919486288
-0.7405607814893589
-0.8226120533946166
-0.5223537810347358
0.25915376137509694
1.0606178730927807
1.4305192166452216
1.2205293351161879
0.6839067274607873
0.13297551451017015
-0.21902552438335487
-0.3659948333811604
-0.4315747562011593
-0.5057349947899112
-0.5716445985263386
-0.629142809470848
-0.5658160041628725
-0.16305986754031954
0.6070810454492533
1.4035227684653961
1.6437081632860586
1.3082625156035166
0.7438193878595158
0.28515151217138085
-0.0644254361852184
-0.2156992733591795
-0.2658792545391145
-0.3661888829396102
-0.5002714424153328
-0.6337262315509057
-0.6135116494502634
-0.13661900173445068
0.6828931703122562
1.6199672270001213
1.854769830951001
1.5251021081238296
0.959384356787253
0.4136809364708229
0.10443785517873352
-0.07333916678864788
-0.1432226331889833
-0.20326185602210567
-0.3050257809715722
-0.4402546435950162
-0.5011384965741105
-0.07262586990472952
0.7341185386086295
1.6580374393055832
1.9153684018113941
1.5860565954746733
0.9469426566413149
0.30527915690640256
0.006169679175433054
-0.1765103152220713
-0.2886642416641979
-0.3421568180348804
-0.4657166412553885
-0.6078223878455373
-0.7136161045214888
-0.40864432890631935
0.3581368979537381
1.1847569016375492
1.6578023890863913
1.5223585023073982
0.8980667451113805
0.47360412833531806
0.0827445915015292
-0.14136529845777288
-0.24385279520129727
-0.3442228879915589
-0.4688300227685722
-0.6171528312068114
-0.7185426573850958
-0.5940464909479966
0.19622999356080906
1.0794347909849284
1.5669969392076393
1.5473733665013156
1.1524770839927623
0.5558597404817336
0.019095194404898985
-0.15112445
-0.15112445
-0.21709489547965194
-0.329566656389051
-0.48299734245530623
-0.6426595990296132
-0.6256594604236161
0.01357837445270127
1.025358001948057
1.7588495506098953
1.8206710678818403
1.421044260484492
0.803529762904913
0.29585274618693697
-0.0342200513898015
-0.18475707956208182
-0.25750678189034165
-0.34435487607388293
-0.4728899054072506
-0.5839166017032229
-0.5509837671651968
-0.07509563077427484
0.819027412620183
1.4710739844583918
1.6425081654343119
1.3199853315303816
0.752743696738768
0.23814113766826417
-0.07449476734109184
-0.24024446699513263
-0.32749009077472363
-0.4076979818257982
-0.5394864441421137
-0.7292842982203425
-0.7825516134127731
-0.49528591050118465
0.14714748394508478
1.0853529718987067
1.4012366500802187
1.1805058246731253
0.7048278053335923
0.0630970408198367
-0.31293987264601675
-0.48098547454173696
-0.5897782438705148
-0.6716968212697317
-0.7422034008913858
-0.9069903112808763
-0.9641540768890963
-0.6790040547134846
0.10088520702455706
0.7679603434457487
1.2006813236313643
1.0064951026187154
0.5033619470820999
-0.0035328428402022216
-0.40208759614471046
-0.5575156671294239
-0.5516043447287863
-0.52312253
-0.5719366894752906
-0.6914211818792381
-0.7720517534268134
-0.49740902969247186
0.15953524386153345
1.0488765395242496
1.4212697567167398
1.254447863045039
0.7540905232934003
0.276785406664028
-0.08395086495133341
-0.2664433453201449
-0.3369060253054273
-0.40129246694852877
-0.5371460132203724
-0.6487358000840501
-0.6916155813675945
-0.35035113172378235
0.24126152209637525
1.2552630146320682
1.5724915061853024
1.2460644674719301
0.6208544784785948
0.10500982524676394
-0.17732617475239315
-0.3446089483111141
-0.4235117566746943
-0.5048712333074055
-0.6472707009214469
-0.7995742285674313
-0.8758482831683962
-0.40725243769689345
0.4998030634767014
1.2260826693015787
1.4503623946375974
1.1123131461169864
0.6880074060289616
0.24203172302986578
-0.08612742126324992
-0.2829692004183226
-0.3677352305282515
-0.47677387056584764
-0.6343254501883578
-0.7691267622910403
-0.8960183666393616
-0.7347141137225555
-0.023488000594063085
0.7309376694287404
1.3173934532936373
1.2303606659597515
0.7193202783085941
0.2510614560936953
-0.20006674221857776
-0.4344364347872111
-0.5113297839239087
-0.5517409536152382
-0.6127773885900286
-0.7337904146427332
-0.9000404728597263
-0.9947845741011494
-0.76338303654095
-0.02954598970339184
0.7839324252940291
1.286611017912301
1.2031324824288412
0.8141110478493359
0.3104337821097058
-0.08260849647237946
-0.2802911866403224
-0.3722759698016437
-0.4641897452241955
-0.5964164564086574
-0.800552730294303
-0.9884337326480713
-1.1259916195104787
-1.1688728830055888
-0.6218547009803155
0.2738662170918232
1.0468121835278823
1.4093786587202535
1.0571620283887437
0.486595020662943
0.04522702187044087
-0.19816608176662556
-0.3406938689115477
-0.4245930924378887
-0.5316860560596144
-0.6991621521627935
-0.8625966037159152
-1.0139885107617095
-1.0057475700650418
-0.5357178998467912
0.15816662850203872
1.0902361473888231
1.1677969621711755
0.8459714705004688
0.2306174689616567
-0.16828466090238792
-0.40738397282473177
-0.542695263477121
-0.5930832372852574
-0.6772709583631034
-0.7975779498873395
-0.9806321283846109
-1.136664524213098
-1.1209556565575207
-0.6707570282652727
0.061415741838870885
0.8764137137979147
1.3287475911295497
1.0823398885489068
0.6137440182781881
0.16057333937780904
-0.24093839625078753
-0.36921337556903333
-0.44973612997085
-0.5163483635051459
-0.5966155537577391
-0.7067747192494453
-0.864559967192639
-0.9079289169538681
-0.6034935206500813
-0.035259488762824365
0.8235372647876853
1.1489242096914423
0.9128271619841083
0.5152963202290074
0.04357730088871614
-0.3325226111542379
-0.450911519880651
-0.48763808950554
-0.5324016851483298
-0.6257770911939234
-0.7357614569228609
-0.9004146270675709
-1.0163989262547921
-0.8229618018676291
-0.08854606742703108
0.8184558729749395
1.3119778749484734
1.1910459659192247
0.7356322286166117
0.2556066893583886
-0.12126975693853798
-0.39560592715028003
-0.48248573219114743
-0.5243679442517266
-0.5730465715743419
-0.6682507360293188
-0.7789824885041294
-0.8354135339384148
-0.7944792413926037
0.013435320741295276
0.8586021876780277
1.2639572233083558
1.202861580750747
0.7752366641438164
0.1383380496786241
-0.0782238608995244
-0.3016122328447298
-0.3664184464030675
-0.3920401790225845
-0.5018744967478183
-0.6893927455003603
-0.8117850280684976
-0.9091389899258084
-0.9033279361955966
-0.4925328945802222
0.22859101059033643
0.9042312609903951
1.2837253
0.9532806978447664
0.451752936604071
-0.019697181762067154
-0.3114446756282868
-0.47041872555637115
-0.52312253
-0.5534995260021267
-0.6742162951891655
-0.7844303102774273
-0.8944578209749781
-0.9547123400323423
-0.5534251746326868
0.30170834899492266
1.0312547353550405
0.8954285935391391
0.7596024517232376
0.05800723644462036
-0.35071795804820777
-0.2999849568995144
-0.24925195575079923
-0.19851895460209495
-0.14778595345340156
-0.09705295230470817
-0.04631995115598214
0.004413049992711249
0.05514605114140464
0.10587905229011979
0.4623062653257437
1.2280751305538316
1.296900924924027
0.9825280579570916
0.4696801651420951
0.03854290824362841
-0.22285706828530014
-0.2952619886404189
-0.3157054490772971
-0.38462976752643924
-0.47039686473958287
-0.6617546905019942
-0.7850790612011047
-0.7924943776274502
-0.3435569094169342
0.43767986774781487
1.1716197985191765
1.2776851205155566
0.9307993892078759
0.4622035272037025
0.0464143048387024
-0.20288411576007886
-0.32300596085351035
-0.369874432086266
-0.39516599616296266
-0.4952133063429888
-0.6184220462441691
-0.7196400312685907
-0.6267232959936179
-0.18127269754780345
0.5906311531620441
1.2836097600932037
1.3108786389332796
0.9999744824834947
0.48537188306527035
0.04454142403787374
-0.1397108080888395
-0.2512930586356334
-0.27325780097730007
-0.32093997857785356
-0.44103954835792536
-0.5188937870457508
-0.6172413372378741
-0.48949759348032834
0.1963246831005751
0.7733208035044132
1.4979618285522256
1.454987307737022
0.9989828861676031
0.4780851734387746
0.17791399013215653
-0.05415370730878172
-0.094452015499182
-0.07418266788758573
-0.08838636288474991
-0.2081508949864137
-0.3559393976943805
-0.49044080798854317
-0.40248603143661804
0.1503283076951703
1.1009585858027842
1.583063784820426
1.5290631981565461
1.0929673673730644
0.5797812513262706
0.2487666331646311
0.08202005814954924
0.061430091478640966
0.028051826769961857
-0.03753397979885434
-0.20794647403115057
-0.3889157517939997
-0.5602944591616986
-0.5631958694690617
-0.03607085440150136
0.8311304405238645
1.610653686800631
1.7176632157545206
1.3651372827624877
0.8286021364006037
0.3778302686565411
0.1129069006319462
-0.004001519438094665
-0.047723147867490934
-0.14065179229542024
-0.29405979366147295
-0.5224648748449956
-0.6557585398110921
-0.6918374256568225
-0.35798040494833866
0.4139234457616746
1.359416809308065
1.6410078724983714
1.410243766311198
0.9753547875264575
0.42519692277181964
0.04807960691247616
-0.061405780511293
-0.11558733805272356
-0.1948364619347065
-0.318489599565104
-0.47070082578133554
-0.627798821665874
-0.7694199933735497
-0.7159932909402184
-0.1514057139781182
0.6952649279607959
1.3692613157784346
1.5236901632401005
1.196857541506727
0.7068707426840477
0.2756491855930496
0.04309800915872983
-0.0774631659175935
-0.13888772900976976
-0.21976564195820297
-0.35833449431892384
-0.5168269343438977
-0.6772801482981662
-0.7769213771856073
