-0.63259139
-0.7641746658864497
-0.7204184293853397
-0.13790976384981735
0.7849383249378797
1.666051456982893
1.8269888965976142
1.617159646843558
1.2017413998832482
0.8527391594519877
0.4965622231841431
0.14927519817861476
0.12856972544097217
0.14190699378960678
0.09030771524723506
-0.033925120358798536
-0.2595447784832924
-0.6269746795785022
-0.8202395642595903
-0.9559383387153009
-1.0044466465912063
-0.9492458912134497
-0.468449108604685
0.6231210951162297
1.4099290509484326
1.9846717325586456
2.0164589797048036
1.6844222032631482
1.210796712589066
0.7238300137031277
0.37412839124206665
0.10147921040918899
0.11039500150579262
0.123625031289474
0.008819852295479946
-0.11618919762742924
-0.3348563846378984
-0.48921142621111235
-0.5906905333087196
-0.6115825304265964
-0.6322880031642389
-0.2947520269507262
0.3272577404137238
1.4729743956210248
2.450394181804719
2.4860040759971733
2.124192845090187
1.735185380018699
1.2082885737965092
0.9343021534467275
0.742610891809752
0.7038720269270755
0.688151911996801
0.5777503274573392
0.3303634087740072
0.11804123533014466
-0.18337792527666957
-0.42748363742883827
-0.6166510880209302
-0.6627953669652429
-0.5637652768747847
-0.2420942417345384
0.5868313182970409
1.5454590430024093
2.32803104656947
2.3842822104667114
2.069218962809227
1.5932783278312457
1.0980022013121284
0.7620900998124904
0.6018612669247478
0.6059831841154599
0.6198136418727553
0.49942575338567935
0.24966722014065082
0.006092314862067516
-0.22195222671129589
-0.4404050375630373
-0.6244843801346829
-0.7499092931838602
-0.7992922619847882
-0.5994328368348191
0.09667052155927586
1.080434974463611
1.95428850605655
2.281276573911663
2.042075352001438
1.5900106421710756
1.1540146883221414
0.8060560735705655
0.5356898436199948
0.3689063358611181
0.2706484320455064
0.15799968382657067
-0.02147640905721332
-0.2608291065514226
-0.5093377791619536
-0.7312836794011135
-0.8862537434694518
-1.0081469885475451
-1.1024412465007793
-1.130993518519125
-0.7328565903803994
0.07060024286044297
1.0017762021499959
1.5688812536060137
1.5388854631498254
1.1986271976272522
0.7600051268736434
0.38974613831695604
0.07967080468152235
-0.031356083857167705
-0.019279060895271618
-0.06012864879689534
-0.21801256400059166
-0.5519741375678022
-0.7734815866409783
-1.1004955554259235
-1.2932507767161379
-1.4907364932364568
-1.5532474895702288
-1.420383490149442
-0.8977763172148124
0.16579337189135024
0.8248533411525892
1.0692416797123727
0.8460290079410521
0.6115641801601597
0.3508481830993666
0.07056642654924297
-0.15735023696873818
-0.23927854713249763
-0.1495824353306785
-0.18268926681165396
-0.4949775192617514
-0.8382246572366189
-1.159119356685645
-1.2902263811698866
-1.3485563862207792
-1.3381821959388007
-1.257332238766726
-1.0057790017897943
-0.2941093286031746
0.6859060627599275
1.289801915370055
1.3928437096587005
1.130588177715218
0.7842818188609187
0.48602460694340827
0.19690164313055228
0.1564766725475356
0.13864797129675877
0.06151267816291714
-0.21440566762305585
-0.4299920336454923
-0.700370323861811
-0.9044530511382846
-1.1309777032527488
-1.2682262118916117
-1.300681939691887
-1.238312422570226
-0.8473130246241054
-0.19332719512494964
0.7961670494627662
1.4212893564587619
1.515332109802755
1.2441542371304952
0.7942030954538586
0.47152611682659945
0.14601168135516449
-0.00728859083257166
-0.051701788
-0.05829655845571393
-0.10106660704085087
-0.2997285062831686
-0.5664602685585707
-0.82121876329181
-0.9940379877787908
-1.0995389771324215
-1.14031089476949
-1.118049733950717
-0.9526005847039982
-0.40428140129348583
0.45979819661471394
1.1524156355074622
1.4201660862252228
1.1913280305983056
0.8752163253718442
0.5958914393965682
0.29962944860269203
0.059482360474564316
-0.04713114285377806
-0.08964264762463464
-0.1956554995802035
-0.40055184430573443
-0.65214612850284
-0.8470189574921545
-1.023459952949984
-1.190940041633864
-1.2651369637008865
-1.3033570248699977
-1.3320551912254042
-1.1778057123575596
-0.6658408192802221
0.2948931091878253
1.0272106039116884
1.1615630397892298
0.8038823345247972
0.4804825698606638
0.12041505135649111
-0.11384530239680017
-0.24240628000424974
-0.30426249
-0.33351331356616204
-0.4782773285930957
-0.7321612903559171
-1.0098335799711295
-1.2030310391049717
-1.295681983193389
-1.3145053
-1.3364504034838445
-1.3591420178789666
-1.1385667532627286
-0.368836144365536
0.620257640559627
1.3104571801747915
1.2991962489313738
0.9487513414671676
0.5565487206262827
0.16548425606408293
-0.0989413406801316
-0.33087840472584557
-0.37954488446010204
-0.40166519960540503
-0.5066669836161904
-0.7220915755481675
-0.9209053929234915
-1.1123694895919138
-1.1986931920378203
-1.2596696925009574
-1.2933958612125755
-1.2586332382393974
-0.7197206968432709
0.2781324801886955
1.2581688872804733
1.7155016250983395
1.4917409498329433
1.0833032720579945
0.7368286794836021
0.4172253681686379
0.18141303976770096
-0.03199226757699009
-0.05585334703896539
-0.11855063222260898
-0.32605200252784355
-0.5970498904300494
-0.7525876026499909
-0.9634455373829736
-0.9979408446177396
-1.0605921233269884
-1.0336286658513243
-0.6620826303912096
0.0867514903913218
1.2025912135078325
1.633416449197323
1.503675985405477
1.0246936815929384
0.7037588664568101
0.3574453728149481
0.14521428125563823
0.009151308357641903
-0.0011896482
-0.0011896482
-0.061957247609694927
-0.19693829806151603
-0.3797879662282668
-0.5455224270241739
-0.7139328502794248
-0.8477412837048627
-0.875413178099554
-0.6372234724868265
0.1287177247016929
1.0890320929011157
1.75488707732162
1.7010006576554182
1.2363848125383612
0.7306380973543687
0.4614669599632228
0.14204810218697078
-0.0038157973161450955
-0.051701788
-0.051701788
-0.10678365296672265
-0.2923754993250307
-0.50930224777458
-0.7314501072352936
-0.918315797910058
-1.0214704515657287
-1.0245266618450017
-0.732041549493202
-0.05806316553133156
0.790595186154782
1.4374024881566938
1.457577641856164
1.1061512052956213
0.6534710174641754
0.27649827800470483
0.016319767937028967
-0.09193778332009561
-0.07796756355800162
-0.06427698173449502
-0.14619791453245756
-0.31383626165156187
-0.5195339983559063
-0.6870831222145848
-0.8137003052165167
-0.9212705847518456
-0.843230930026573
-0.3231004492221975
0.4977012416318005
1.4586469220365237
1.8093181730168313
1.60574954369232
1.14288593941258
0.718486205958694
0.33761603030838316
0.10116792105465484
0.0493224909999999
0.0493224909999999
0.007752803840963912
-0.14976607397731254
-0.38731789915043613
-0.5937498456303932
-0.7825863661227117
-0.9120537611245214
-0.9704107370282556
-0.6725376904203484
0.1573498166725229
1.158007133779108
1.8973932945894365
2.0050709806517335
1.6790492741728658
1.2420656186049595
0.757318789817598
0.474111982467867
0.2595229038731713
0.16854489366879255
0.151999136285417
0.07777991118502049
-0.07552365574463055
-0.306595494755314
-0.6386707042972901
-0.911525205457403
-0.984205636919797
-0.8797219645236802
-0.18815519668472314
0.6101328200696237
1.740001240411294
1.989385558917782
1.767289572565406
1.4370292019589959
0.9381026280409163
0.6336972869655635
0.3260675268243781
0.23333596117218702
0.18863211220977616
0.07544219737838939
-0.11031614317225748
-0.35187998711237006
-0.516752902102499
-0.6565757395535874
-0.7991673146767374
-0.9361589694384004
-0.7696242669822092
0.01216007643595178
0.964611852700848
1.6912097073894037
1.9368870815901735
1.6677159441990543
1.2806787236573545
0.9143041966282988
0.6284550039074539
0.4603587041388792
0.4132231846296426
0.29866570691186983
0.11855182006333218
-0.06373224382060763
-0.23637520345720317
-0.44417156248833706
-0.6857216052977397
-0.7502157025586477
-0.5130632637724033
0.10329331613704776
1.0329554955584848
1.7921837905946778
1.8891452022386326
1.6686108077719364
1.310638131136253
0.942506593481488
0.6284086487160806
0.4972601822479226
0.47024015
0.41476605995494786
0.28389864352139055
0.07221145311121449
-0.07631813350104749
-0.28036566822193604
-0.41288068718427967
-0.6199891553351375
-0.5674632549392808
-0.04982644305680095
1.2154947400583427
1.9213115309605757
2.2802417902100234
2.1550715531997118
1.843148649960944
1.5300208435827685
1.2092251132416463
0.9255703250550321
0.7736997610654531
0.6814472030406517
0.5550744393562488
0.3846560734001942
0.20245846375512339
6.400368852620131e-05
-0.1821201878793615
-0.39113176453549975
-0.5341012288329196
-0.586708965350272
-0.350156695743434
0.36444580745967203
1.3546028611269674
2.108088514621255
2.2990890019607972
2.1027842936054313
1.7943257041820204
1.4566131630332115
1.0785393530672307
0.7955783565843144
0.6851108943995883
0.6072669528554561
0.49106564615055637
0.30079280222792737
0.06060932093075422
-0.09834497829210244
-0.294814248494805
-0.4820638487965906
-0.6362417471292071
-0.7770508685068817
-0.6596570507346038
-0.21443447010749794
0.5598707498618151
1.5123224548023646
1.8884939225558317
1.6553198591850085
1.493619944840863
0.9881982618965242
0.7456636125789003
0.4613716797996352
0.365564243972296
0.2881812268926446
0.17143987077913897
-0.06393479433076762
-0.31788738970426933
-0.5617797731177294
-0.7760126501588863
-0.9231656135755038
-0.9979273245805453
-1.1211666666862312
-1.1340850209987139
-0.7626127725811821
0.09768565755573921
0.9976324441447976
1.3069551614128476
1.1772805915936635
0.8851401418231551
0.6084580080003557
0.24230697327286904
0.000568018900861722
-0.13912474801859592
-0.15272607
-0.24672188782784576
-0.44328733479841065
-0.6610499035854069
-0.8737327291382707
-1.0369041800157934
-1.1420586424641783
-1.2451233288000099
-1.2639882627856813
-1.0624110082679026
-0.4371057020775314
0.5591638028167832
1.2178302795949996
1.2790982241706788
1.0230250342495515
0.6937247680912902
0.36589783345921884
0.07899364902509676
-0.051701788
-0.0575303238126866
-0.09894127092761862
-0.27596741773029426
-0.5808367869052284
-0.7257750960687105
-0.8738349454456632
-1.076413424031025
-1.1523196439482062
-1.2526484778214673
-1.2079164557058897
-0.8398499886392169
-0.10479648979821837
0.8671137477365959
1.3364239660654103
1.2802037045628816
1.0202528046694574
0.6945255854043255
0.3407883806629991
0.0371219211163783
-0.13989213041490453
-0.2388786991214973
-0.3348408703372424
-0.4946698321585831
-0.7507215920219382
-0.9854652267348607
-1.1762770570459617
-1.2947823577234263
-1.356898790356415
-1.4089463154090733
-1.2916291008273093
-0.7089352682623774
0.1567234418415892
0.9801733425310524
1.3961756431722858
1.2236162230306271
0.8937049353588741
0.5362131974281727
0.18282092972240616
-0.1369972930288026
-0.37858874502923373
-0.47656877282451476
-0.5760244574307536
-0.7250576861496593
-0.9361885498952226
-1.0858520339266342
-1.303057406209104
-1.4114591270516965
-1.5208210881013136
-1.5250894094740854
-1.4138774297255803
-0.5449320322130689
0.23755850594959363
0.9966516091913773
1.0232705373824995
0.7381458996298007
0.36109901293408714
-0.029744780011756206
-0.31203539013249304
-0.4868236640282132
-0.53661833
-0.5862464796836244
-0.7443802115682975
-0.9125650946138761
-1.075814338153143
-1.288847099102949
-1.4583825386848333
-1.597176168099695
-1.6219982481705444
-1.2728257669678726
-0.492000531393181
0.44766141199341325
1.0470955020688917
1.048348517540575
0.7817965628558958
0.4132416726769989
0.05767594786709883
-0.25982177160019493
-0.45858047220531756
-0.52313159
-0.5401292069834974
-0.6043240939581912
-0.7837991277457415
-0.9842222848713775
-1.1819960126122364
-1.3090033550192732
-1.458478496989077
-1.453369226678343
-1.0518469363458125
-0.04934915905450388
1.022596886006822
1.3868232605847233
1.2431695385125805
0.898766912846461
0.5322092002201413
0.12515762400197816
-0.1849952623269412
-0.3898620811100978
-0.4517575990371935
-0.4740287608035975
-0.5783311860443491
-0.7437164152821886
-0.9085132411626469
-1.0944434472946274
-1.2726119957120519
-1.4505033059051147
-1.4557995335158944
-0.9159352376576622
0.22720338411958335
1.1779986691834097
1.4718178081783027
1.1973338679067222
0.8200341704758161
0.3917022352905782
0.08718093158460705
-0.25784777787025787
-0.34473617378152466
-0.3620901491505565
-0.43270691301219694
-0.5826988516654157
-0.7682217167372768
-1.0130124860103105
-1.1975696675120062
-1.3499101131705151
-1.4449126941302242
-1.0145386106163639
-0.12007693848813153
0.8599959020253303
1.3803637796213768
1.2119129171021203
0.6711175856773361
0.3207543715405695
-0.1711455072285968
-0.46033121571872604
-0.65784746
-0.65784746
-0.69135218368755
-0.811468316065568
-1.0089358467965743
-1.2495856651293633
-1.4784385569890766
-1.5792590865630114
-1.4757193025769597
-0.715114804101409
0.1514765406299191
1.1034815624626948
1.2257647429775218
0.8185295090759275
0.29760777272678907
-0.3699514915617559
-0.6142663332638502
-0.8760220259794186
-0.8744565280642257
-0.8179212965955492
-0.8656409061129031
-1.0062100994761356
-1.1043674915011277
-1.2259992965669686
-1.3738943610132353
-1.320279597644414
-0.7636019571457615
0.27659991630418046
1.144220313683444
1.3908738745740228
1.0706936378926133
0.5777167310492095
0.1332376510387057
-0.23796051272972962
-0.46609664340777646
-0.5213059136920083
-0.50631104
-0.5608288640911693
-0.6957338997019988
-0.8801467466647288
-1.0747939471216066
-1.2324427353348368
-1.0162764329824159
-0.3667689283581905
0.6046768156529334
1.521225243475093
1.7040299890738624
1.4012387398982495
0.9386763061935741
0.49765308331892616
0.07431164028045424
-0.13208903677988917
-0.20689317439162017
-0.22710565968312577
-0.3359744524950911
-0.4637384853476021
-0.6420909329443687
-0.8263705366210545
-0.9551448444499114
-0.8077486975974336
-0.11802382199106376
0.9225149118290983
1.7146000013051794
2.0060008682825936
1.7184758536185105
1.2836609015334621
0.7637203234753023
0.42039846305572126
0.11638466983264088
0.009341426020050898
-0.024851600538123648
-0.07086447286133132
-0.2107262009857061
-0.3588640136956743
-0.5242792376983879
-0.7422890627020517
-0.903148755706416
-0.6065104088115933
0.23236217972388395
1.3003532856976805
2.071282933823858
2.113676332028675
1.7876759396258348
1.3743646794537683
0.9064356519224613
0.5272034787195681
0.23795947202967974
0.07179027086387035
0.01375206244089859
-0.12202709641850266
-0.34677892450408027
-0.5433719340321319
-0.8230715939703453
-1.026525168750945
-1.1665083007368757
-0.9278098482033175
-0.047625562406072894
0.8534406424714008
1.6385158226703016
1.7168541613588422
1.281221881616981
0.6287003799404567
0.14763714819004714
-0.10556571234377285
-0.25073659602721565
-0.22915101064191506
-0.24652759601273785
-0.3941182688683498
-0.6037077992095148
-0.8295950884637405
-0.9916461793567071
-1.1075943509534287
-1.1904161763182732
-0.747455840226126
0.151924646392544
1.1881960212282727
1.770315584818927
1.6172349415273677
1.1923188504900617
0.5699949544297582
0.1477684642873501
-0.14641507552194966
-0.2890874982828268
-0.31232665005986004
-0.36503685355714377
-0.5185729839058698
-0.7020905276492221
-0.917731075378498
-1.040920418122037
-1.1904854404242438
-1.1447977068311097
-0.4193137708917036
0.636411319002723
1.561544697009584
1.8625177270878104
1.5024162753093118
1.0446671481944176
0.543736087621907
0.10821967271441257
-0.17187928320020363
-0.2903632762069631
-0.33158319143151976
-0.4139987280091839
-0.5613814099527291
-0.7656240828776093
-0.9924625674204834
-1.1961374444332349
-1.2752241671734292
-0.8682365439773367
0.06722195321253027
1.101472097655419
1.708133209575006
1.6032786847873561
1.1908319889397327
0.8142191836240638
0.3758283415889221
0.05467636913509678
-0.13320137089744483
-0.22069856889119752
-0.3171672486915676
-0.5362774197819666
-0.7017708148713507
-0.9067928020551903
-1.0862264102552122
-1.2362073809002156
-1.1600865834582428
-0.6248986146385209
0.547434794378754
1.3891689007021493
1.6420008796707704
1.2758735250313749
0.7834144126915975
0.28444827303095516
-0.11169663015409964
-0.3309731379642932
-0.4356803500432042
-0.4778876826501517
-0.5572965299846911
-0.7153946287297349
-0.8974296447080551
-1.0824605421356945
-1.269479024300806
-1.2975442733557816
-0.8642297997749793
0.16882315833760497
1.2050169269045727
1.5076210772407026
1.2540956515648536
0.767354627178846
0.32036943427696557
-0.023453592547377
-0.30056264538494365
-0.4232764776388833
-0.4759641559022336
-0.5567243706172564
-0.6966401811611097
-0.8702950444497749
-1.0459036284911878
-1.1869843405743161
-1.3284728744224008
-1.0732976661781064
-0.3109206333328004
1.0188019393677754
1.6033473475306437
1.5653656643145282
1.108793831820174
0.5438039905677725
0.08613888547651716
-0.3004154684888092
-0.3954827097791023
-0.40337967452319146
-0.4291353722644375
-0.5699008322205604
-0.7784234709554145
-0.9917891916820417
-1.133276598059454
-1.3121416040025562
-1.1040290141475615
-0.2592583974585812
0.766751284874666
1.6354535644065096
1.7377866861913775
1.379462938818486
0.8969684951436403
0.4611998019659826
0.04400789202855654
-0.2945387432304784
-0.39745414894175374
-0.4599166881550623
-0.5115763065573589
-0.6554879526202491
-0.8423683887454863
-1.0656623409986392
-1.209930596727305
-1.0715688955936566
-0.29254787124510384
0.6788886631058653
1.58910768564073
1.7052181994817868
1.394322529734823
0.9456870182042715
0.5589413273415824
0.13910259402670588
-0.0882526109598578
-0.20043423574416458
-0.27978648791416844
-0.4084014130080816
-0.6085819195332546
-0.8216713235524707
-1.0200547798842992
-1.2112376712800617
-1.0179727865989774
-0.14317620059313696
0.8885332372408535
1.413813660903923
1.3903286022592793
1.1290931586329986
0.5944373608383133
0.21138230846445896
-0.13260155091356238
-0.27232882573316536
-0.36838954370642724
-0.45551656428732396
-0.5800962569559708
-0.7496769884006164
-0.9426990419708142
-1.1630257360646723
-1.269677493491089
-0.9758855955986269
-0.19232496917031455
0.8021859095662145
1.3829228355086647
1.2983430534878975
0.8784321539104935
0.3262245743682298
-0.07905251298042856
-0.37487867900467853
-0.4919021427741112
-0.47364221180932853
-0.4849092119642123
-0.5753026859389787
-0.754284398203326
-0.9268023927574949
-1.1073162405701256
-1.0825101038278055
-0.6930877505781081
0.13889996956614137
1.1764472371475883
1.7188146865808547
1.5249591242690315
1.073113805735696
0.5678016734479465
0.1472443866158636
-0.11526805102479916
-0.21499273167868588
-0.214174896676786
-0.28827386565867014
-0.5267580147749151
-0.8354661850005531
-1.0276082826478108
-1.247425326417041
-1.2767964241730303
-0.7210809636394949
0.4515282121590463
1.3072035505804869
1.777400615829448
1.4943188143383124
1.1157973056542687
0.7801928125962202
0.3366833957744658
0.06925347908473009
-0.07911889872739551
-0.11867654018375368
-0.21403177965355707
-0.40525834470055
-0.6702839449007783
-0.9513587658287156
-1.1753811315429132
-1.275146309403148
-1.2887432776329413
-0.7688461743232516
0.35423937933259875
1.4516346430637774
1.8129714848863976
1.6286891860848076
1.296438091139934
0.8959767654377802
0.48894693519864585
0.15383796599522942
-0.08844890056589895
-0.1714463762805991
-0.30796837140184535
-0.43035113915386486
-0.6398522735066369
-0.8377082626128936
-1.0521733856277
-1.0462350222502677
-0.6905514289351926
-0.3348678356201178
0.020815757694918613
0.6714123330978139
0.8251921567742833
0.6117095560438095
0.39822695531335883
0.18474435458286187
-0.028738246147634983
-0.24222084687808565
-0.35816714077308465
-0.3985921113560959
-0.4561127855907312
-0.6236862435118979
-0.7759597189336622
-0.9999690527245929
-1.1587272166288556
-1.3354419859222717
-1.5116601547033441
-1.3620525105687304
-0.6708566558898474
0.2578070290184311
1.106483866606125
1.3166071539936488
1.00037123838568
0.44408221394197456
0.0042819911186407905
-0.31166292900852466
-0.5040960153352751
-0.558723560739257
-0.5669977192084631
-0.6439029805575177
-0.7861938297059113
-0.999275934632782
-1.1694699800728274
-1.3238416934079589
-1.4264985888820028
-1.1264684715802549
-0.24338469096316379
0.7887124101229788
1.5084793289133702
1.495006694003099
0.9553569043377784
0.4620657940419969
0.02576102718411491
-0.3474683647110843
-0.5045398926536001
-0.5364265816800445
-0.5652157048839171
-0.7820757710643366
-1.0473455981607003
-1.3291995812522346
-1.4748847562684937
-1.56010485571521
-1.5670205431450321
-0.9088459663959128
0.12751132625275075
1.2674076393994274
1.5119979388189917
1.1611289273496408
0.7049427512962666
0.22177185292459203
-0.169522442428803
-0.44495102557819977
-0.5665555777420161
-0.60733532
-0.6540349580740703
-0.858720092660781
-1.131688294149624
-1.382114831026311
-1.6060996109364054
-1.7155627969485174
-1.3810470036479874
-0.4271858332853037
0.5412417545229026
1.183034340814526
1.0733596758232398
0.6000692149960316
0.09897364712072493
-0.3959439830346703
-0.7458791127424229
-0.9047562518480474
-0.9547573932709675
-0.9774398702777428
-1.06099385030552
-1.2134199246778616
-1.3962137754116828
-1.596223605663647
-1.7819392796558569
-1.561082281088006
-0.9150082451552377
0.2696951159374904
1.0079901688015278
0.9698035879180706
0.5142282308386015
-0.0011035295677062074
-0.5805802167310222
-0.9277395980623451
-1.055308191884128
-1.0803579802649568
-1.134136024237772
-1.2352444753020115
-1.4218925535276794
-1.6585352116789287
-1.88137834521108
-2.013893331380565
-1.6792159145143586
-0.7645127850040655
0.40932579626657106
0.8027297700835823
0.6738430534918844
0.05067022202703242
-0.4632310581979998
-0.898248803746734
-1.1337258078530092
-1.1045495138523072
-0.9959726418320118
-0.9615567930400744
-1.0514784326579016
-1.2158868093230495
-1.421734327749566
-1.6810763212107878
-1.533001192951792
-0.7063580585871728
0.5176617990684127
1.2093936763090078
1.276705709052958
0.8529445113617735
0.3240772352319764
-0.20640546856800335
-0.5603169776528387
-0.7093963780845916
-0.6936052698471199
-0.6673090831615791
-0.7338530975929116
-0.8721224481817614
-1.0710335142207312
-1.2443820148707514
-1.2674090650932472
-0.6660687631179805
0.3023325861837693
1.2299897094423615
1.7145232818956326
1.4402095963126047
0.8536760570349614
0.28228699613477365
-0.14169233994838337
-0.3897640039795137
-0.4557989000000001
-0.4658815708990746
-0.5285264203805379
-0.65734406583989
-0.823640501048035
-0.9934253773198067
-1.0714481635430844
-0.8760848491099524
0.12521079313201722
0.9936851310777363
1.7775634703107521
1.7247229995365911
1.21676605596492
0.7042084112235287
0.2137453631352474
-0.17569854060651915
-0.3539447157661923
-0.40528676
-0.4159721095189072
-0.5189975706148425
-0.6817332751508616
-0.9243516109675991
-1.1040375465174361
-1.1468174639598052
-0.704268890622232
0.1967622109190536
1.193844524812431
1.6745454153165236
1.4521681903749595
0.8604966595899703
0.2719746572870819
-0.23998554122360832
-0.5083600185052319
-0.5958836356134917
-0.554873043299606
-0.5649792995873756
-0.6760193770986965
-0.880931198748678
-1.1107955025791638
-1.2339220694682478
-0.9551862553877486
-0.0686965934056859
0.9054221906087523
1.5073150036146907
1.4064520988326832
0.8722188347879107
0.2135740812416852
-0.3064221439110327
-0.5772049977191251
-0.64774503
-0.5903735956282793
-0.56692561
-0.6288608502994224
-0.829391427332975
-1.0405362459517251
-1.1621223448679643
-0.8053711928717732
0.05307398907565175
1.0988393366386662
1.7298478683991476
1.5859731093179428
1.099675669674291
0.5260051501761105
0.084491683440378
-0.2631586524185902
-0.41476571322835254
-0.41302435873592164
-0.44383653913252613
-0.5462088102771979
-0.6949393460753368
-0.8859035211487958
-1.0143557811415334
-0.5842174708777745
0.38814022697448347
1.3917409289787979
1.8382647810585198
1.6932875232996814
1.2300193608542629
0.6699703539416132
0.14492537160374142
-0.17085975249005542
-0.2760333315617423
-0.2567703627859813
-0.28499849307444514
-0.42573638623850596
-0.6472465526129877
-0.836090835878049
-0.8819786403236491
-0.3727092777929458
0.5810901597347212
1.5753411937839354
2.1068015832634344
1.8696020889177043
1.3463332655553826
0.7839815681983925
0.38715034968720674
0.1816212922611882
0.07015139409093402
0.041863039791613064
-0.031636871581413525
-0.20528853278283885
-0.45459559512205105
-0.7006188634824293
-0.830496224845853
-0.5986054384333211
0.16061731907293147
1.3246634847183532
2.0709755815389386
2.034927815737764
1.5963741891761616
1.0231179101491545
0.586380846102853
0.14349818943299164
-0.010207192451569348
-0.05506486491901115
-0.10673065998042011
-0.22822336383543487
-0.4074425760958967
-0.6640091734609028
-0.8429875476346633
-0.7225509761381056
-0.05386057782422843
0.9099291161587753
1.685864359668755
1.853715763444943
1.4861426423077524
0.9921696347461509
0.5220174498155693
0.03315441576184601
-0.13117019008415576
-0.1966388663467694
-0.2224349513859569
-0.34108101072473607
-0.5135580380565454
-0.739810807737421
-0.8796518828719916
-0.794057373036237
-0.25104067676737585
0.7724269703782982
1.6507685469355329
1.9007286902720875
1.6071818935862918
1.0720707915191614
0.5776623014010411
0.15187363234118645
-0.053891459336298464
-0.10571055215013979
-0.1488887034567943
-0.32405665936950356
-0.5384317982969377
-0.7973846909543831
-1.0398073241321584
-1.098747618698903
-0.6706495403698609
0.25665780187495435
1.3319265604801558
1.8868221896223434
1.828268803741467
1.4390641976101575
0.8517263157062958
0.2647672824346874
-0.10695719653102205
-0.2646618907961716
-0.33665707835220193
-0.45096815395414847
-0.615874182146533
-0.7627602740302469
-0.8943935483390338
-1.0509068933024874
-0.9504596774838305
-0.29744213408055165
0.7428861780873307
1.5916317965455935
1.745913173413181
1.4326547355485175
0.9627596824040477
0.4997730564634118
0.0363732383660908
-0.2545243495614496
-0.40952601707735625
-0.47513536729061917
-0.5678282969148969
-0.6888421901617303
-0.8794280165871226
-1.0864727522250284
-1.2392371884032074
-1.2080543484179436
-0.5961693674725961
0.3948553665712326
1.369551594056495
1.8413759500891724
1.5377094234811475
1.10667920762213
0.5966052328882092
-0.030881543647309797
-0.24550277514539653
-0.42941551914744086
-0.491020424000806
-0.579930523619171
-0.7164727107944671
-0.9558339874052446
-1.1904215409619918
-1.3034846581075468
-0.9264232630141307
0.0021249929420894542
0.9935332630330316
1.3300285397369862
1.075654926248955
0.5180739315600672
0.05722926787409799
-0.4120290987910131
-0.6343517891884809
-0.6566919045106714
-0.6092585817167999
-0.6437538971497827
-0.8199762823918889
-0.9856200888876572
-1.2680212219746605
-1.3702222782130296
-0.8365732085369219
0.22195135219657733
1.0169892579521689
1.629691365628804
1.3287835243204613
0.9128106039113357
0.3327847225243422
-0.08943612641390068
-0.39270721975636513
-0.5921566792984682
-0.6588968013729777
-0.7345756344244925
-0.9032114565813961
-1.091545172579766
-1.247378507070141
-1.3595258408718198
-1.1606205829011835
-0.46989644135103203
0.7081401250871457
1.617246576094641
1.8236962073893503
1.2849065181215626
0.7274003195786607
0.21306982481059306
-0.1811000209601622
-0.4126206304797987
-0.5051871930188336
-0.5501542980570687
-0.6704727300226396
-0.878875825828285
-1.0957565187104346
-1.2690941621273264
-1.3552925321016236
-1.2103542147398767
-0.25090992140483326
0.9143944134791389
1.7371597405311618
1.9443109557412162
1.5366595115790758
0.8564143991577673
0.376165376355463
-0.200981526892458
-0.36440251856886446
-0.433407589498736
-0.5397035881194434
-0.6984731491693494
-0.9539907450204324
-1.246102686095199
-1.3653137985162882
-1.477021723799238
-1.5861443682351273
-1.5918135507003797
-1.0306967809552925
0.04887327439621547
1.2857405297966862
1.864141743187193
1.7746286397640616
1.2328216370667164
0.6289211164655945
0.10582943898028074
-0.2528715753661231
-0.48644644656868385
-0.5581078904108059
-0.6334736782408281
-0.7950292228226964
-1.0118387028145563
-1.2459841807508032
-1.440337811364745
-1.5973673541751057
-1.6272143101409606
-1.1363010747149933
-0.16761564806374862
1.175974029451626
1.7273131329130775
1.419474781588348
0.7254941659681128
0.11474570638210874
-0.38129101491555106
-0.6785068820886844
-0.751822818731479
-0.75887174
-0.7752818944441027
-0.9120643052761613
-1.1134553736316977
-1.3541134266707602
-1.5715824639119647
-1.7300450411556185
-1.5577322671161002
-0.7381939795824991
0.6192266351440783
1.6805384307830193
1.7902278739446107
1.2826982589528488
0.5620462775870113
0.005546560524685773
-0.4400828617521814
-0.6713157949707724
-0.6738591033963156
-0.66794989
-0.7442389168431844
-0.9100913768180171
-1.1430095125676811
-1.3105559405831615
-1.4950888382676437
-1.376493549152077
-0.6359637199494994
0.5171636431895276
1.8524830975345772
1.9716493598110854
1.4639133005121177
0.8374820798502555
0.12367855337369335
-0.22668466076311125
-0.5710625703070976
-0.6401610626277644
-0.6583808569904438
-0.6761461541897927
-0.8297551044585475
-0.9914549547785371
-1.229273562060185
-1.4445121205241873
-1.5603588321251534
-1.1664453342375987
0.12599299338064524
1.4391997809211141
2.1367043545846216
1.813533220675554
1.2228322754633751
0.5557431050342018
-0.018299790122492
-0.36337719744002306
-0.5560333322066755
-0.6107916918770303
-0.6286800001009366
-0.7719625258394643
-0.9203885712396819
-1.1271024549383544
-1.3468643174771604
-1.5286919214592163
-1.5163765625008905
-0.8057094391760824
0.403101707129104
1.6065118238024587
2.043812491556351
1.6401233194881257
1.027298459399257
0.1878683381426603
-0.3306823739488777
-0.6003547761353184
-0.6629896362807701
-0.6211399762211629
-0.6424702541682881
-0.7825233093856108
-1.0135267188154633
-1.2657069758488855
-1.5020343882510099
-1.438965468486577
-0.859373271756417
0.3974832669407709
1.4320021881285365
1.842252926764708
1.3343987074687338
0.5536576144833879
-0.19224585007179573
-0.7591255780114123
-0.9765539602467774
-0.9281811393720656
-0.833013488316187
-0.8514331537134081
-0.9722469007278215
-1.1839411477898538
-1.3835665529464258
-1.4865552119791883
-0.9657328889988718
0.08456026886288709
1.2650058371731667
1.7974989563806982
1.4273929558201934
0.780676035591211
0.06435572162344741
-0.4813813732443958
-0.8084155164645112
-0.7810754433164143
-0.7083596
-0.7284025815277677
-0.8427895816212333
-1.011488565952815
-1.1822253992642298
-1.2155616036445172
-0.5828671912287069
0.48494794330740354
1.8499579886017798
2.170850090800189
1.759114341247232
1.094557610936142
0.3851918963210459
-0.1119633357482391
-0.4298529439830897
-0.4807127459027462
-0.46131413900772805
-0.4859710355132375
-0.6198683483134059
-0.8079205995074531
-0.9943677820710417
-1.0241128739801018
-0.5744502441305076
0.5969074520322432
2.1140260994173246
2.364459216629003
1.98492024762181
1.3089398157011818
0.6605305662650837
0.08546302155860686
-0.15510270767447148
-0.20113264126277425
-0.22641098725539904
-0.2775338932604069
-0.40147325673771495
-0.6116760870730487
-0.7869963014670014
-0.9665035630185069
-0.6689252913695678
0.3551360817654251
1.8690074342651375
2.5709640165585714
2.4026934534454707
1.6997098050719508
0.961765718376016
0.5075018199423373
0.054635001589005305
-0.05023668980643958
-0.051701788
-0.13174741077564933
-0.2808349478990264
-0.4818295081276661
-0.6945227958378921
-0.8644849920109093
-0.9017036218201732
-0.21899073009848471
1.0508703869533036
1.989293228693274
2.3638115632726544
1.9044584809058784
1.3351200940618473
0.5569611415227699
0.1779800457618764
-0.06995000043263327
-0.10221393
-0.12047977674624857
-0.21661796479107795
-0.4498516552556688
-0.6669276831481884
-0.8645130924101108
-0.9471682230884977
-0.4741199087458833
0.562492773141382
1.7302713422937739
2.2793940258255008
2.0533813190382046
1.3935789007745814
0.7589675089949035
0.2877486231645197
-0.007401098208487172
-0.051701788
-0.05526044889927386
-0.10100167208621495
-0.2791887586260501
-0.5605899031548793
-0.7668955411605716
-0.7451016550286267
-0.1703285895696633
0.9083944523845912
1.8754633631806916
2.446401942469775
2.2517102915577407
1.6501949973244439
1.0023829002561826
0.4304784904067334
0.09242211971485616
-0.039756382981873464
-0.07468091311923533
-0.16055474610286302
-0.3154359475366888
-0.5407009786945062
-0.6954011006916371
-0.7058839100724826
0.24253625959856412
1.1620922695186966
2.283915019977864
2.4051899157209027
1.919705942481108
1.5148063754477419
0.8680068141071994
0.3958179754829767
0.03246840313754646
-0.017919576438561183
-0.08521679548798702
-0.1932039252875204
-0.3633776791017054
-0.5651113135673709
-0.7799815858132865
-0.8200519371452112
-0.24870125680571165
0.7487968239059042
1.8872566675519666
2.3993197079998163
2.1167096899035815
1.606268800601079
1.0475189415021955
0.5140409862233527
0.12950597548981782
-0.006975700904218
-0.09077526272057503
-0.1746905181250724
-0.3567919276999466
-0.5965741471538832
-0.8676093513013448
-1.0354778164985292
-0.9636693341001241
-0.22777093310038277
1.0106825154814234
1.8692197302459261
2.0873211425091225
1.82458591910106
1.2504788513482574
0.656935780197327
0.2367408473336945
-0.16153082629822985
-0.2374370872065014
-0.34892084120574396
-0.5017161144513519
-0.6811944475535492
-0.931585860585967
-1.1243693819298657
-1.3476469064529764
-1.4847407905823158
-1.4088586298946257
-0.8570704454531445
0.22589657797166451
1.4613220967281975
1.7631047300931961
1.451833830708553
0.8745739108560371
0.2988154772753412
-0.15089010284556054
-0.4954818955189112
-0.5809173839456401
-0.6070295963044688
-0.6675188658252669
-0.902886132405979
-1.1323251273803998
-1.3373702634390092
-1.5051301667942405
-1.596905793854441
-1.5065191234609794
-0.6999641311427302
0.41526074157650283
1.4297158551926439
1.5639996346418377
1.099217809449619
0.39139930862931566
-0.14434212510196343
-0.5193641306092379
-0.6978718904306815
-0.725349961222212
-0.7185992335227529
-0.8172985740519549
-1.0093932981383573
-1.1866697393378458
-1.4026494490310486
-1.5536689610135892
-1.6047641771321914
-1.1802264941664942
-0.08816379211524733
1.0001250120407081
1.6162861697037747
1.400573322671454
0.8928764078625638
0.27532726097070237
-0.18857780276965164
-0.47706958649725684
-0.6439465356735768
-0.6732625781087707
-0.741741109288604
-0.8994927111889826
-1.0615079501341274
-1.2347238625671608
-1.4644501819768394
-1.6772621288268914
-1.545313480549439
-0.6665530053421959
0.5559232096222875
1.4693852881804013
1.6193757445153787
1.2045978472129768
0.6872670329526278
0.06675858827579881
-0.3469507382079696
-0.6306611070944084
-0.747246225024621
-0.7694252252699144
-0.8280091349108835
-0.9773149504812828
-1.1868670999945314
-1.404100782478947
-1.6045561310693846
-1.6804748122755084
-1.2202999061695559
-0.25834097249745075
0.9691419432201093
1.6015396711666618
1.4877307326240357
0.9736514604382679
0.32323974728714594
-0.19234524755778204
-0.5498637443288762
-0.733974584283311
-0.825062934428738
-0.9010952917800986
-0.9989261391090388
-1.1216742088098874
-1.2934253917423615
-1.492450197919846
-1.608546934002419
-1.3932701523169526
-0.5128577969462155
0.667686259916966
1.3351317369168827
1.297308442874453
0.776263473519673
0.22626188557347382
-0.3668026722890345
-0.7871262867048309
-0.9327440154675192
-0.9254727043299644
-0.91040816
-0.9590216813700507
-1.1050582180317758
-1.2899846219427646
-1.455904853982097
-1.3847858715620136
-0.7218540939290792
0.3981022821547473
1.211979115527456
1.4401007111716246
0.9904982215952016
0.3184538062921559
-0.17067528341308932
-0.6228716498468698
-0.7729557694133943
-0.7623592087914615
-0.7114002970833265
-0.7930130647684007
-0.9730719290938848
-1.1030607541103592
-1.2794690249354563
-1.0892063112546548
-0.28232584482427425
0.9484355871562813
1.6978217271343703
1.7473686621303182
1.1990148905367592
0.5462903442627879
0.09824692123476614
-0.34253745454104684
-0.50631104
-0.50631104
-0.50631104
-0.5804921535582998
-0.7415688523100199
-0.9435777146383437
-1.0210421825479048
-0.6385396233307672
0.41486856631221336
1.3440183656378777
1.8641265429135072
1.7919704393935916
1.4038906769797508
0.6852890556333061
0.12887436736372535
-0.19804373748570375
-0.3385926210466328
-0.3515254138569637
-0.3151672194211463
-0.37227779389346904
-0.6161269255405328
-0.8164503079772835
-0.9612795980764218
-0.7219237855893882
0.18280990368531252
1.3353239884861152
2.0597056
1.9429060244256986
1.4988947678182218
0.7184673604543457
0.21931892012220638
-0.14050245466077305
-0.30426249
-0.30940325719540157
-0.3404729680324926
-0.46176287187059734
-0.6480657278883294
-0.8551152880288915
-1.0235302678180664
-0.8716636934691548
-0.17068233503150287
1.0201638067725565
1.7837079108577294
1.9607493026946794
1.5203372736413967
0.8709597106313853
0.24802350713645419
-0.17973640227949333
-0.3499168827807523
-0.39381552816043225
-0.40871007974206314
-0.4989946077124356
-0.6447730486438563
-0.8513423406090967
-1.0172576732345369
-1.0286717299234327
-0.5688843265128048
0.42158692054706026
1.4870137928829805
2.12322438816464
1.8576327938791872
1.143086621102703
0.5223183742194919
0.08521115527423219
-0.1525782501580811
-0.19759193439137668
-0.23425576162512393
-0.30781418526099547
-0.44959622209195965
-0.6664067725645558
-0.9025811797218607
-1.01655870066499
-0.7753579291455877
0.18021566432971792
1.1941111095579484
2.198718465318191
2.1641013922407213
1.6839514391337773
1.0411553739364274
0.4704820200690862
0.06305530969169368
-0.3309386424621964
-0.5029029280066121
-0.4461491464531103
-0.3893953648996209
-0.33264158334613136
-0.27588780179261735
-0.21913402023912792
-0.16238023868563844
-0.1056264571321367
0.7843064053347876
1.7136165888041757
2.168919267240568
1.9333009216002643
1.3538898203305305
0.7875433397399213
0.25515320344786696
0.0031451931827550794
-0.10684953905223629
-0.20030430564441798
-0.30205311006869084
-0.506990332852378
-0.6832780322399785
-0.8759911381386744
-1.0523720237591985
-0.6716548307155918
0.3605684512256737
1.4130620752276268
2.1773681212075657
2.0102098352381477
1.3787792963627616
0.8234583585869663
0.23927119034358763
-0.0833403892781435
-0.23240015973642875
-0.2909590962575083
-0.3414289980740827
-0.47776093572727485
-0.6755214356654211
-0.867189119947394
-1.0603735696858205
-0.752962756340641
0.23737055053614764
1.2927900437001916
1.96916163720502
1.7271437345150567
1.097176190405461
0.4348894659779872
-0.04285439377898248
-0.24451507459255395
-0.3042795321258714
-0.31006029810142355
-0.4234904832368369
-0.5649916819746116
-0.7973864237090592
-0.9649362562309759
-0.9922276592707753
-0.29887143133034966
0.8671546768776038
1.9096296411644502
2.1396999919495663
1.734636732846815
1.0794583166928073
0.536672197453965
0.07732327251141002
-0.10943615836995088
-0.15452764373203326
-0.1756499550108666
-0.2968007450577703
-0.48164456995806404
-0.6671709829026276
-0.7501191253759877
-0.2970672623112114
0.6635467014871212
1.7930344340511943
2.242254356234669
2.0268804538731326
1.4477855822292411
0.9099651419263373
0.4526959338435994
0.05529421113297978
-0.0618760187856202
-0.09542977167819497
-0.1829696179886004
-0.3433446128419768
-0.5926175650888371
-0.8349391217564415
-0.8346492694348114
-0.240782048918097
0.7614239097055888
1.7226257094061377
2.211914466777188
1.8569671992119188
1.2743320477578952
0.7123797560310463
0.23855124948035047
-0.07325829260522716
-0.23249692006581665
-0.3306077812851024
-0.445545100794794
-0.5965905161644309
-0.7526348800122613
-0.9414247635108649
-1.1497400007711582
-1.0964894644547407
-0.5285723478606092
0.5127109756172433
1.572813423041391
2.0025822678434957
1.6184954896045058
1.160493019137442
0.6354810835500578
0.1475220926141203
-0.1971817179316679
-0.3978325774177035
-0.5024271846552719
-0.6230425959000317
-0.8000347856919798
-0.9947749599360819
-1.1896786107948087
-1.3783592470865234
-1.476686348006683
-1.2264784031652072
-0.34160778278742465
0.8345886810525892
1.511369030780754
1.5788051940982828
1.1212442045399251
0.5437484377351096
0.05224997582445201
-0.3557498584271527
-0.5442321015360027
-0.639614625117571
-0.7378819558047796
-0.9098188799696926
-1.0810325087738368
-1.2646831297344647
-1.4309683371765225
-1.636091144520352
-1.5828369366541495
-0.8359822635150426
0.181823710546268
1.0275495437282722
1.4568062685923784
1.1460295963567597
0.5500395399402165
0.06702733018383256
-0.39137792827520906
-0.6179250425827085
-0.719917619020202
-0.7834552111644153
