-0.14908432
-0.22751747386595683
-0.35045093266284144
-0.472405924087586
-0.5790185021172642
-0.6531975777312167
-0.6874328479632106
-0.697030539329172
-0.730547660418799
-0.5292415226057635
0.14442231753267148
0.9839564628299062
1.5411625039790118
1.596594049533001
1.4689110193233188
1.3516565994372507
1.271310382814368
1.06659532644575
0.8355406767559899
0.6336090031891033
0.4707099739473968
0.3200232532423291
0.16933653253725928
0.03359979347203321
-0.08476725683688713
-0.23615994837549975
-0.3440128922152821
-0.4892742499814896
-0.61388226
-0.61388226
-0.7084070711978013
-0.7592442411800537
-0.8195189244045873
-0.8697783745719248
-0.9054291402380317
-0.9380024307810063
-0.97141913
-0.9412786328186317
-0.7458025444082108
-0.19752242845443707
0.5265301000629397
1.0409974958116415
1.1229185516387694
0.9955432802212268
0.8441489409006426
0.7252025008239634
0.5349035033755202
0.3569193118583538
0.18349700226921886
0.09912687896685768
-0.04641983125465337
-0.12676599140218586
-0.28553142266306303
-0.380946248980692
-0.49798159093521455
-0.5738846226653663
-0.6500957810937132
-0.6929608468413619
-0.7228341586084326
-0.7630373758678713
-0.8359539119574098
-0.8834581815351169
-0.89991176
-0.9470493844518436
-0.97141913
-0.9437441119903648
-0.7367291889519956
0.07463577744773425
0.5359679389809162
1.1394987075471619
1.1381571822056917
0.9499154805797181
0.8135959115972767
0.69500118492065
0.47083661071903526
0.3310339513271681
0.23901258832033562
0.12133343665349813
0.026254371171044455
-0.1028830537639279
-0.26403430643678094
-0.33464179743688344
-0.4043960803207953
-0.4263650411685701
-0.500426924408044
-0.5666509317057016
-0.631426579037791
-0.6764766869568187
-0.7061572572015875
-0.7496748249614986
-0.8004857073419521
-0.82840438
-0.7679301263935233
-0.416694603084936
0.20176246461880015
0.9272466126890293
1.3327666411034411
1.2916998443849046
1.1508637571405662
1.044537944753677
0.9177858030548096
0.7457147254238252
0.5518344116228665
0.4243290521289719
0.2738885656971985
0.13397354443470189
0.018326082985597125
-0.09424797132122942
-0.21575631475012522
-0.30401567644313765
-0.3241065609286353
-0.359773769231106
-0.4175802328534288
-0.49202950057750233
-0.5656309981318467
-0.6219114594729837
-0.68538963
-0.7624812292837986
-0.7977849706696197
-0.7071701382996879
-0.4375361213360736
0.327208315123554
1.0636604577923316
1.3942865395199533
1.369180941586948
1.2696935047228533
1.1868938981547281
1.054254088343252
0.8492818106267481
0.6487016725191899
0.5080205463466239
0.40226823549956875
0.23607574571691584
0.0628367166131865
-0.04844488809319841
-0.12974203395505143
-0.23015966596808912
-0.3117617569651597
-0.37207166167794636
-0.42997711485425666
-0.4998643985811276
-0.5788909163093341
-0.6083107062831588
-0.6545824691742314
-0.6992991674476728
-0.7480737655641417
-0.7131528043097475
-0.30709363221757807
0.20286897225064832
0.9729022010371677
1.4590387053711413
1.429618907168854
1.3248606671179908
1.260133411699974
1.1542774687543413
0.9548531723296093
0.8032177472201714
0.673801197547358
0.5658712410305896
0.3981209531070925
0.27555811016616805
0.10899498810182362
-0.0038004813422361505
-0.06189443286234279
-0.1259469263011989
-0.18619552249934704
-0.24274458037193944
-0.3128622361155246
-0.38146918215442466
-0.4591040005072477
-0.5187307037455228
-0.5476866224741572
-0.5706482868091108
-0.6172315259085002
-0.6413414008841453
-0.3772093747257223
0.3320569425462755
1.1265710313268642
1.524194613094525
1.6531488962492402
1.6028464
1.5707345617982016
1.4894698021963169
1.3292039865138074
1.1064161143446927
0.8861641253546345
0.7783111815148513
0.636207496444749
0.44016282772081405
0.28717992643969537
0.15856202228562769
0.06660807891063054
-0.019643857197043122
-0.047301149373449626
-0.1420733210741617
-0.23664035365017855
-0.3264968801051313
-0.4055311958303865
-0.5060090963143624
-0.5748686778807621
-0.6291635998513893
-0.667484964854419
-0.7017080251871476
-0.7132360423262011
-0.6066244241893005
-0.027996034414922932
0.7190187508073689
1.333451366352167
1.6099493999840238
1.5605508274515492
1.4814585810038727
1.4312497186369926
1.2367954985891025
0.9716765648611001
0.8099153895883966
0.6958398316285229
0.5568031167590748
0.4506512197532434
0.26406497313254057
0.14182704389735262
0.011629559855247676
-0.04419667578644855
-0.09884115292894557
-0.17478280866143422
-0.2451889908300253
-0.3214346584938795
-0.3926362196068602
-0.4470531818684497
-0.5024752048218362
-0.5564108346505303
-0.5951829139040425
-0.6327910288816074
-0.6448689188118367
-0.5555715331020961
-0.053242288953884054
0.6807709870857122
1.2169013157989423
1.4500444387526328
1.3897697302406284
1.3308957967606139
1.225112092286901
1.0612225712352445
0.8774388943395927
0.7123340055671856
0.5255295027029806
0.49610972095761774
0.3205465746227396
0.15994106323243287
0.036881507433005195
-0.041823257
-0.06293458823906453
-0.12439995003517187
-0.2061182308172099
-0.28047118120987186
-0.3927607900364624
-0.4491820727983267
-0.5037779232394586
-0.5600835916063751
-0.5980344902653508
-0.6541309491983551
-0.7002645039750189
-0.7488372574122875
-0.7820950248088331
-0.8078870961398877
-0.6231318616402834
0.06459759446056479
0.7061148908839662
1.4268462253583187
1.4952850521520638
1.433091654250921
1.3928883695582277
1.3412231277313096
1.2333701180638257
0.9396767457375759
0.7413126460888885
0.5443609053914764
0.41815916772650424
0.28754392141569085
0.1337975146530445
-0.020180716851849974
-0.09140381560336824
-0.1803441037001617
-0.2567795791383073
-0.3153011459695052
-0.39064847691907817
-0.4948074494369655
-0.54237488
-0.5930436322261232
-0.61388226
-0.670834749903792
-0.7103043374092683
-0.7511584703880746
-0.7999920274548622
-0.8997159554578624
-0.8411640620575298
-0.45290956578595404
0.12976584264005192
0.9872917822844888
1.2913158733928707
1.2759071500327799
1.187872750451459
1.0985081952201132
0.9917447621822852
0.8149094298543537
0.6340853633224293
0.5245428340956955
0.39593187067129104
0.25197827774510906
0.10800752436714858
-0.02273986431112799
-0.10712442504005446
-0.21325134702931947
-0.3071701296485093
-0.38654417551911835
-0.4506538143764379
-0.5131331386957846
-0.5818236736792447
-0.6642095474568211
-0.7179326421916328
-0.7813058737190849
-0.8379342868254521
-0.94578723066524
-1.0374751783828773
-0.9028356045726892
-0.38155734186107304
0.42847819475611393
0.9972803627150526
1.279727986991821
1.1743119576661711
1.083536990448371
1.0062231847127683
0.886706858749462
0.6999452493555169
0.5285062836957484
0.4207668865220604
0.2665824937522587
0.11047553213742849
-0.02868527555504025
-0.13017739815150114
-0.24100048640046406
-0.3255601272180318
-0.38423578706385975
-0.4582724433764478
-0.5081513699861997
-0.5382693384904828
-0.6116191804425309
-0.6673772709868038
-0.68538963
-0.7428013484489095
-0.75689701
-0.7278857419632838
-0.3748482869627853
0.3116762495400233
1.0303648951506026
1.440206030505774
1.463621077842338
1.3653255655289096
1.2765513526398193
1.141913195265581
0.9688127373009734
0.7192011599586342
0.586998019596365
0.47045675221818806
0.3359230064170301
0.15548656030891878
0.008375032995698008
-0.09763313041146793
-0.1980507573670027
-0.27533089092299623
-0.3565599985487531
-0.47525459690080923
-0.505391934298498
-0.5687047558236652
-0.630586394014269
-0.6773130444329033
-0.7291115835562139
-0.75689701
-0.75689701
-0.4056818045298206
0.24643720856918816
1.0482201076319422
1.3847337089935083
1.4449421591665375
1.387186291426572
1.3570490214621391
1.2568918418386699
1.077682410756805
0.865881772206364
0.7249223842315183
0.6150099479110642
0.4830134747901506
0.31248154252059146
0.15754163933970913
0.04042623806952478
-0.03298162216950739
-0.09352076295798084
-0.16783645845096837
-0.23750502986189792
-0.31283750871420707
-0.38399724895109455
-0.46521423721674443
-0.5351961413769145
-0.6114450978505763
-0.61388226
-0.4075090511910556
0.28941242711555737
0.8925180763224339
1.4390121444033606
1.5205241146056658
1.4533248866076105
1.3998287713940019
1.289924784013862
1.109066182383557
0.8880389323088302
0.7368566936227642
0.6238105043459371
0.47907814011739214
0.3004302072418322
0.13387701783334932
0.0004877011675484544
-0.08157675118467442
-0.18839548185354368
-0.26682863571950144
-0.3535482055515381
-0.39413331621046516
-0.4518835680122033
-0.5671195843735587
-0.6158310488174175
-0.681285848407309
-0.6945663913463034
-0.7559520439173578
-0.7956926188463115
-0.7691364821162759
-0.4994747057631495
0.24539957461825296
0.8919507286761907
1.4880205200775483
1.531339
1.531339
1.5075644028887965
1.4036522649644123
1.233551806123372
0.985292395154436
0.7796292212455187
0.5787534964355427
0.42300183737652153
0.281219098218449
0.14412996844390477
-0.03694512882808454
-0.1349718640179698
-0.2353954853486015
-0.32790627387914806
-0.4183183080313403
-0.5069692800292592
-0.5974136299258812
-0.7078971333715177
-0.7787116561260405
-0.8248870364145463
-0.870512694803638
-0.9160003947653872
-0.951898950772824
-0.97114924148919
-0.9613230336621342
-0.6739320201207248
-0.06368065182083471
0.6730451544080498
1.2678289003892367
1.4443476073183312
1.3691561152861598
1.2795389323474535
1.1241293585453689
0.9803947116378019
0.7523081859539894
0.6120789572767107
0.4787663016759126
0.27461321138020317
0.13289734954615082
0.006046471156143596
-0.0999618963285891
-0.19846943667001737
-0.2750725627756567
-0.3388292702931823
-0.42009635655770494
-0.49781497493845606
-0.5614778060934531
-0.6480057391990112
-0.7259177188962349
-0.7820827724826287
-0.8171174437304788
-0.847183393669132
-0.8948248974029659
-0.9189238610566117
-0.9312001050293105
-0.7383617261178573
-0.2395961324800775
0.5020421008672902
1.2354042299983927
1.423691213122826
1.4276636099956699
1.4001100942746583
1.3402873508531328
1.192031297380176
0.936727627458043
0.7167794982497439
0.5143274922720311
0.4358943384060802
0.21333127461029033
0.023251616858027187
-0.03702307058107915
-0.10926926040661478
-0.25286250346135825
-0.3044607502903763
-0.4201242853379802
-0.4872781424870733
-0.5674437897004658
-0.6628586160180961
-0.7617667902963295
-0.8262905671109121
-0.9011631026858737
-0.9619552642795007
-1.0149882472673597
-1.0429265
-1.0429265
-1.0212836868562378
-0.752008889628454
-0.23407699558528175
0.5302518773452248
1.0170999452174
1.1275370895297911
1.0228608702187454
0.907610208948494
0.8190478333933539
0.635554854755739
0.41574911560205696
0.2270451217970143
0.09417763485019864
-0.002037825875128199
-0.10282340386944402
-0.2445460955139593
-0.38928190899351567
-0.5453197023220523
-0.633579064015066
-0.7601194881068534
-0.8091328519989857
-0.9053525090941681
-0.9347722990679935
-1.002289019902546
-1.0429265
-1.0470996952160476
-1.0778756081799126
-1.1144339
-1.1144339
-1.0878405268945628
-0.807626298182571
-0.15877754725872834
0.5877248417942973
1.0087851621811208
1.0378026625097274
0.9261895582379082
0.8063452235250049
0.6757299687850289
0.5057338182819855
0.3509255954584483
0.22625888785479636
0.11066982807375456
-0.018538622014581653
-0.09767644993380661
-0.282187805250195
-0.3780907057105406
-0.45177379809337387
-0.5494270349593955
-0.5904614848889452
-0.6913983500279367
-0.7208181400017621
-0.7687775258905625
-0.8189292074921272
-0.8680014131200644
-0.892858878653824
-0.9390066245121265
-0.8692485187028715
-0.5567756647846565
0.012088876314876443
0.7475835754668897
1.0772034587704795
1.0996673264113932
1.0445329510690275
0.9967955835363301
0.8820846738317543
0.705565950445727
0.5252388048975719
0.38850391418481045
0.26943865062816585
0.10688634179202168
0.0074679760317968025
-0.07443247297611352
-0.2059618455424399
-0.32489972469833284
-0.47086751
-0.5008133608286165
-0.5505785927577875
-0.6215199600523164
-0.6607659578531976
-0.6995060815978039
-0.7352148384387514
-0.75689701
-0.7833264379656157
-0.82840438
-0.8178999190491738
-0.5968726436869747
0.004785681045493817
0.6813516711549876
1.1191110418187205
1.2275345003999394
1.1694440471503385
1.119235269075035
0.9994255090278044
0.8047574742743187
0.5719113458233601
0.35746100554600907
0.2118426525178137
0.08645295610830958
-0.041134564796598855
-0.1649602116045293
-0.30035734318886165
-0.36467043542393934
-0.43394144636958326
-0.5158093255401889
-0.6193187870332941
-0.6683321509254264
-0.7376705985002577
-0.781756790799975
-0.8678085318173994
-0.89991176
-0.9344151342492211
-0.97141913
-0.9934901859932002
-1.0429265
-1.0429265
-0.8954693382354157
-0.430585202620645
0.23543909787279954
0.8460644822743133
1.0545548335570425
1.008564403315379
0.9577424263346994
0.8957878513978275
0.7871832448545656
0.5862580040791803
0.43747704607006266
0.3184633941730325
0.23735926291166526
0.10189308937032697
-0.010902380073742557
-0.11678950453972334
-0.23233608383752952
-0.30269368195531776
-0.3796413256937414
-0.44125844648000645
-0.49972694756050795
-0.5723079902915449
-0.6521265844474089
-0.7184287469523062
-0.7659015164280681
-0.8074380078860439
-0.8471832050229701
-0.8813825385186816
-0.8937381180842772
-0.8133919604654913
-0.4467519435144702
0.1039549735047206
0.949262572411038
1.1140134116242568
1.0871569426388814
1.0450509496694889
0.9946970079571266
0.9064376462641053
0.6739005328854519
0.4782994167399338
0.3668570660198153
0.24762419365604543
0.11458640097826378
-0.023946864826623032
-0.13439025925609294
-0.23536368520364337
-0.34127762076495316
-0.42436799751923804
-0.49570706148521404
-0.5723317484217707
-0.6602999102901589
-0.7414853553040558
-0.7916698721983421
-0.8667636176620346
-0.93601208539207
-1.010785775546919
-1.0429265
-1.0937625985586181
-1.1144339
-1.0844454105236163
-0.8005460832805809
-0.10827105329939157
0.6449323283862137
0.914821478698552
0.9877589236335385
0.8854301867455939
0.849884443692395
0.7695382860736091
0.6083871847042748
0.43795428638587014
0.24107354594071634
0.1908647341487759
0.05263375656134009
-0.0549982675856195
-0.15857545963692404
-0.2675626804964704
-0.34796298688570015
-0.4283091445044861
-0.4979641659751419
-0.5537098092111326
-0.6117959466825301
-0.6780699454188563
-0.7367266034172006
-0.7936893144350854
-0.82840438
-0.82840438
-0.8410225577449493
-0.8886352953207077
-0.8121230398097669
-0.4266757784388782
0.15516049476189908
0.7155412642184635
1.2380383381597466
1.1526202290428496
1.074421450237381
0.9990780898848391
0.9094749426294368
0.7387347200626883
0.5673642835081306
0.42747607084650463
0.3074202353499852
0.1897410836831359
0.04048498823491595
-0.062113974705785106
-0.15715469422954553
-0.2502110855720002
-0.33422704519749846
-0.4347049456814721
-0.4651285280460217
-0.5359135429397583
-0.6100240674336803
-0.6710477178489719
-0.7181090945791816
-0.7590189016247244
-0.8192935848492641
-0.82840438
-0.8656130045950952
-0.8978220464287437
-0.8684022564549183
-0.5620508488973159
0.05386419711003648
0.7343236000401203
1.2003759714553115
1.334910212308397
1.2646299261222047
1.2309201859402539
1.1532010415887373
1.0031813242273286
0.8084477493852563
0.6269576450027231
0.4406127055611969
0.26837919283913214
0.112052172462606
-0.010617553830770836
-0.12006222412092116
-0.2435046609276656
-0.31211160696656737
-0.42033293558273926
-0.4990775999967521
-0.5686258451159192
-0.631360915697571
-0.6833881571421392
-0.7537287202284179
-0.7856769051563312
-0.8158142445045325
-0.8512550199944626
-0.8834649758248531
-0.9107967129661944
-0.9710713961907287
-0.9129190127136718
-0.5399446975034006
0.07835097973454624
0.7462726389477173
1.2172316587535776
1.2569375160419398
1.1882717364956958
1.1366496425171109
1.0318292317114557
0.9203395955557121
0.7383841813499218
0.5841117718504809
0.4736282684048494
0.31014891248223164
0.1407305686588008
0.052471206965779504
-0.058263865061867176
-0.10116600159302884
-0.1698270693333557
-0.23845607896606874
-0.3447800030013476
-0.4012986242946092
-0.47082376857110686
-0.5427658675965964
-0.6016054475442524
-0.6869910548870781
-0.728025504816628
-0.7589978103602696
-0.7884176003340949
-0.82840438
-0.8274981472672053
-0.5378164442335482
-0.00492918516500776
0.8499768825490137
1.2981607670213597
1.367167561189663
1.3255301605058307
1.291571558427569
1.2181806173706689
1.0581631982986577
0.8371411535798304
0.6772035079926131
0.5302173707331184
0.37978438292381667
0.2465394719481807
0.09385203196481504
-0.02649114531838187
-0.13608165582690637
-0.21929163693461567
-0.3572034175295532
-0.6120438078923643
-0.6762475371356257
-0.7235975556141718
-0.7709475740927179
-0.8182975925712639
-0.8595806757166513
-0.8920972826561826
-0.9297260553720019
-0.9585337546513513
-0.9819521502973397
-0.9828002569237931
-0.8120420871119559
-0.22307153413901215
0.47942461269093994
1.0025104711474404
1.2015257769458016
1.1451184605343816
1.1058723969058
1.0292729737990862
0.8935999582445354
0.6510213746153525
0.5333422229485236
0.42727880617554415
0.3412155262701999
0.23073202282455857
0.05626151213372806
-0.030698727696634835
-0.14577684836064683
-0.22552352124749733
-0.3261991123455757
-0.3666036824113062
-0.4603021683383463
-0.5142580652403762
-0.5542291973467287
-0.61388226
-0.6293486322976618
-0.68538963
-0.6819662246294387
-0.6316817800837428
-0.31789032288410696
0.30718866303114634
0.967506999930474
1.352670646148264
1.4450853676836946
1.398543368006751
1.3784115914249344
1.261781355743742
1.0703335015030704
0.859322936000682
0.6873638633051236
0.5733491541148624
0.43998302496638686
0.2786735231624649
0.10465317793025873
-0.00453360107349313
-0.11778863974102792
-0.14792598556787076
-0.27905534897815343
-0.4013937527407287
-0.4406397505416134
-0.5392035929800904
-0.612753063800429
-0.6945073525156864
-0.7336240218414957
-0.7724720639879921
-0.82840438
-0.8526949693947317
-0.8492880588485148
-0.44748874371936387
0.2120587665445193
0.9086351308981797
1.312834309264258
1.3461872322446957
1.281614461393508
1.2145982901366463
1.0998214673541755
0.9178882352387913
0.7174014496924783
0.5354453987935918
0.38808264648377466
0.2373959342078605
0.0867092144538325
-0.028790467480469907
-0.14317280149857387
-0.25355860748221387
-0.3238456921640781
-0.39418624682119885
-0.49244740963389316
-0.5693380350311
-0.6493881379182157
-0.7556893299579067
-0.8066643851153191
-0.8430679602123446
-0.8759397248191815
-0.9264188925113938
-0.97141913
-0.8840441652919978
-0.5582055954693244
0.17924348627736514
0.8196331290495762
1.207022935282731
1.182157491730512
1.1185523210590629
1.0584936525766524
0.9466598237432209
0.7647974429299352
0.6024186972883363
0.45521760660641897
0.29076852273024617
0.19538729276152406
0.052286294026276506
-0.04626364946109968
-0.12673251701550753
-0.24526428935237754
-0.31227572501828166
-0.42205209603597443
-0.4706331575957456
-0.5364663516265367
-0.6053781747936277
-0.655647263485643
-0.7048087695320193
-0.7538221334241526
-0.7988582547287579
-0.8388077317027456
-0.8645944302065972
-0.6335012834118531
-0.05549030009961342
0.6468684124231169
1.1740451777050964
1.3883242
1.3883242
1.3883242
1.3248502700704061
1.1719104920923755
0.9554960663910332
0.7345290594996917
0.5983597646963341
0.4299789403531523
0.2571506743966247
0.10074969922704442
-0.031590206890992706
-0.13200783806109356
-0.24420241451489985
-0.40277704667470665
-0.4529858668958145
-0.5644862547506971
-0.6139583928871852
-0.7000909221859086
-0.7745482455485856
-0.8238643678522395
-0.8688697792944517
-0.918797137546509
-0.9751543703568888
-1.0045741438737892
-1.025471386661138
-0.7820497386606529
-0.23050398155040802
0.647117985191898
1.0852296221667976
1.217549981043045
1.1285269539153722
1.0605651836750514
1.0175172079591048
0.8575245147333108
0.5654250190299617
0.3747847957982614
0.2924770143944591
0.15370593258968798
0.020726509739651185
-0.07985636785014637
-0.2118824465789202
-0.32348839725120165
-0.4381194411760078
-0.513585471072761
-0.5880313779825388
-0.6586191708360719
-0.7363728408206968
-0.8101840720939811
-0.8805509480926815
-0.9451925430810776
-1.0036957574147516
-1.0378380908467069
-1.0506136665864063
-1.085610555433442
-0.9698468315665645
-0.4961024191897251
0.29485860998684416
0.8557912180565747
1.1291523805380976
1.0421636605974949
0.9479859474165738
0.8934813256709675
0.739599182970806
0.5170106189611574
0.38215665761114553
0.28352041920529525
0.14485991218239597
0.014273875985298423
-0.08773656832342974
-0.2091178906890883
-0.32491772810529146
-0.4092044640531654
-0.48387151673018447
-0.556954533878513
-0.6321461415046802
-0.6845850264557892
-0.7367925162728329
-0.804417177424226
-0.8538064985960789
-0.889437486734457
-0.919830301926422
-0.904200614142771
-0.7110850000574067
-0.1834303586092291
0.5324707592188611
1.109248806378718
1.3132349901066516
1.275155414943146
1.1826244248922688
1.1171427158327294
0.9307978010765321
0.6953444862146851
0.5001321680087653
0.3646926625780262
0.20873188242829072
0.07284544049676461
-0.08487128681630296
-0.22109581295660619
-0.32588909571340835
-0.44596680296206725
-0.5197269988178526
-0.606521727594152
-0.7001375414742683
-0.7621586304542132
-0.8629157339332879
-0.9366089253880352
-0.9968446731896676
-1.032298402204901
-1.0731050293626418
-1.1082377977795808
-1.0815076712880112
-0.6934305206588002
0.07393610518654947
0.8101648327520258
1.2748215085742078
1.2722229117636787
1.1349306161517316
1.055939248571014
0.9616260062439687
0.7404090393784489
0.5335234208934796
0.4325724509570728
0.3180383251896946
0.1924880337977243
0.0355215690022862
-0.0356126397788021
-0.12408434466365952
-0.22885522556347715
-0.32899259262018193
-0.3976217002701609
-0.4393489522224686
-0.5215795770427432
-0.6349692516900862
-0.7236921357484696
-0.7891967361658084
-0.8210051293137837
-0.7734953975186198
-0.5319313837639215
0.03551281282822426
0.8494406691375803
1.3246413030304345
1.5224600286464534
1.47593564472797
1.450485441052797
1.3949369005779164
1.2431070256335095
1.0220797671294992
0.8522059723054867
0.7055247524680106
0.506424599153682
0.3214918120006772
0.16732886254448293
-0.04280723742862314
-0.07294458156964266
-0.22044606448438225
-0.3205120991358572
-0.4185388351485638
-0.5217816370347406
-0.6379208281817093
-0.7291908043188602
-0.8022979211602075
-0.854709823203122
-0.8905003505963779
-0.7689760977223896
-0.2803651161796058
0.480110418802274
1.1627919886456575
1.3783549856317434
1.2863672398188444
1.20544283778013
1.1246996989272948
0.9462196474326524
0.7609227191932055
0.5870539608802436
0.48047468906017926
0.3166462216708741
0.1640802171655799
0.03277948700401179
-0.06530608663026838
-0.1355844646004286
-0.22539394828797138
-0.33119283959586004
-0.380206203487982
-0.44740852142182863
-0.5015533601320601
-0.5430650399467947
-0.5832682572062341
-0.322961061396032
0.1714036095848552
0.9531220787931614
1.3129484421649011
1.3699573842928583
1.3207438321413971
1.27047470130358
1.142081174003043
0.9444899313946119
0.7716644219033499
0.6387724693082651
0.5122344976188417
0.35916864824508665
0.17072089358368814
0.045779776342940226
-0.07669950854415428
-0.1552801837346264
-0.2356263413533981
-0.3339049764840698
-0.41315419533319586
-0.49783729679761224
-0.5753107980065049
-0.565419089417802
-0.2516276239895949
0.3949391786436107
1.0313760598850732
1.4190037625700747
1.531339
1.531339
1.510108876693736
1.3813908926633631
1.1454691477949779
0.8910553204865815
0.69494301495386
0.5947537406057811
0.45088246746789484
0.28687113841493966
0.11149216442232014
0.009173745123794222
-0.030469530493495378
-0.08771115765786314
-0.14518237126259848
-0.2406980605384522
-0.3371196772563776
-0.4376091065238108
-0.6101823588307048
-0.7341868416100381
-0.8247011919663432
-0.6918859269170732
-0.07588807629593536
0.7224432172528369
1.2676384484796794
1.4829773436556657
1.4598316
1.4598316
1.4133357206918966
1.2463275199553212
1.0117580159625585
0.8568815878978121
0.7108067547511414
0.5241792312213747
0.3761694860651936
0.1706567690261188
0.04343532800743535
-0.061144316718984223
-0.15655915062285253
-0.2798453158894766
-0.3533947784813307
-0.4230988119425487
-0.4972328973905291
-0.5755899931686812
-0.6661405926752824
-0.6862679639086238
-0.584028575335852
-0.022039415382711314
0.6019877422858377
1.145829594225497
1.3665204537290936
1.3482843428351987
1.2843231137844682
1.1597182394936785
0.9587623879508261
0.7068801277406006
0.5351449123869727
0.4069469674073445
0.28078684821379846
0.1365342711817312
-0.014152445308809825
-0.11987127913681736
-0.23540799950458757
-0.33940751629844074
-0.4374930858184896
-0.5089739335183661
-0.6287141859349588
-0.6740975718304143
-0.7357394157031771
-0.7893328500855039
-0.884732741413777
-0.9155298783390556
-0.735372300071444
-0.35407287225563916
0.4742839292122425
1.0546927569268771
1.332906617139065
1.325692796818482
1.2936788152187424
1.2124584231541247
0.9982470176074616
0.7533833667082049
0.5268669121212499
0.3227822865907568
0.15140881467288758
0.01435122565895659
-0.08925757601375425
-0.22653030571313154
-0.38733426077849015
-0.5335120951246435
-0.5894301357516076
-0.6845500330193972
-0.7340320061832799
-0.8279639377921792
-0.8909068675294743
-0.9596192767900736
-0.9947594198831623
-1.0657330743334652
-1.1139528242847452
-0.8911518623770105
-0.2488406229000253
0.4693435956653517
0.9838552409960796
1.1642917510747595
1.1040170425627673
1.018623430143218
0.8973797234053247
0.7462304710249489
0.5079236118254914
0.38536077711300565
0.20478551976400408
0.04128726755904384
-0.018969109965236177
-0.16264144761168522
-0.3050244019385967
-0.42273808135944724
-0.525450691617685
-0.5916502272861656
-0.6689026507506304
-0.7256748913034008
-0.797624976171958
-0.8369188246657733
-0.9012377356667941
-0.9435026563754434
-0.920203544897069
-0.694340811719414
-0.018870357625244832
0.6523614018222735
1.1446247727678727
1.2357179460942709
1.183672098949161
1.1181325225040195
1.0344743702694847
0.8445575167909893
0.5896056313105418
0.3894060859654128
0.26315167497911507
0.12314732440610798
-0.014184243737689117
-0.11109013499860018
-0.28044678084581837
-0.3373769482553471
-0.38639031214748787
-0.4731952153800329
-0.5513779925792308
-0.6518402848961581
-0.7505306782198289
-0.8271972705379327
-0.907304835907584
-0.9776453905646973
-1.0429265
-1.0419689665335452
-1.0167267587756819
-0.6033989976127614
-0.0011013769722231226
0.8619679266921138
1.2432205892863728
1.220552795992724
1.0582903558864447
0.9068903644035143
0.7789275844648428
0.5896290547122931
0.3720082089353468
0.18537040069004596
0.03271912157382288
-0.06955167869321338
-0.19127312283183698
-0.33024948197104476
-0.47957118073722094
-0.5953985685246427
-0.7170089536697692
-0.7891754949282734
-0.8668370011343819
-0.9361042532432778
-1.0008410529048322
-1.0550573579289992
-1.1150392609188704
-1.1589664715077859
-1.1039488645891264
-0.7423007146670444
-0.06562704955970011
0.5262584917903931
0.964910081420888
1.1961433831195043
1.177067736156787
0.8555625855981521
0.5665617136273703
0.27920564727233366
0.055178859785048565
-0.1038564329382131
-0.2922917055355097
-0.5570697988429574
-0.8476009595456482
-1.1398910124547363
-1.374092727419501
-1.5188879061673826
-1.6010739713301605
-1.6991006332867413
-1.7903830229337747
-1.9229478172207959
-1.8932776811008838
-1.4120645356938872
-0.33128638985875714
0.9224271173036793
1.594971221336943
1.6667576208284416
1.4653852495337785
1.2125381115713965
0.9329805038153023
0.5211221953520038
0.13154739081223632
-0.07955876770311987
-0.2504289526491341
-0.48309441243967827
-0.751678997501659
-0.9755441246202965
-1.1962762332131325
-1.3331034172422234
-1.5352705600463172
-1.670872229366043
-1.7786540051972428
-1.904608671810332
-1.9795154252357623
-2.0603240794511466
-2.173749653257392
-2.1870445
-1.7863425110195779
-0.6128470836222859
0.9891215001165814
1.9353477613159078
2.150081065025704
1.9126770922993095
1.7591785925927317
1.587469111377668
1.2298855157842867
0.8762754287023561
0.4839919759010257
0.16057318411198968
-0.04462480144139311
-0.291112995631776
-0.5602345816328158
-0.822276523236815
-1.0567168782926357
-1.27162475355951
-1.4497633470427682
-1.6058387667376348
-1.7852858484298177
-1.9634241008482618
-2.074192293497286
-2.1621265165871177
-2.2440329228316633
-2.1846064820692304
-1.4597777545042927
-0.2541582716081412
0.9722271160209411
1.7344937542346954
1.5775685800815873
1.346553630009459
1.062049678520189
0.8136207850367247
0.4801209359588987
0.2097215370494582
-0.033963458493837265
-0.17478391027567855
-0.43601440289732557
-0.7295089078069448
-0.9899225698051194
-1.1271952707048487
-1.3289384018156438
-1.4018022688129472
-1.5112529663962175
-1.6296070994123397
-1.7615500950005067
-1.8451124391211133
-1.944828558710985
-1.9990757457968484
-1.3911692052179356
0.0017850183770666828
1.0511347472895187
1.965260666052415
1.8782771513495429
1.6215881610597123
1.3530600130742894
1.0597901983740623
0.7170066349238148
0.45222854984478383
0.2451008925599119
0.07142721289879331
-0.1355459766234396
-0.3753680531452936
-0.6085022242783673
-0.7877190836269973
-0.9348180252676618
-1.0598181519241496
-1.1803675144954946
-1.2905914854031442
-1.389261632984644
-1.4914838102740604
-1.6220388049722572
-1.6076107755675828
-0.9423771538723328
0.04612772012890676
1.7519730571966918
2.295155288408506
2.396771065829426
2.1617742595080105
1.942000698101025
1.696447739104093
1.244581878543868
0.8545754553582798
0.683081143851573
0.43544264191622606
0.07506896642442111
-0.1258868404439426
-0.35197660488024274
-0.6685952781876191
-0.8293478703252215
-1.0041073757209844
-1.0903702322221966
-1.2303433681688574
-1.3825815425531425
-1.5165650376732094
-1.6316533545072505
-1.7052209180055122
-1.782760835835222
-1.8374053434333477
-1.4499952895885626
-0.3536367964967798
1.2031893765796369
2.2158702609192704
2.4545046115253575
2.2551913053433834
2.042827133719933
1.8106085340820066
1.389093838138216
0.9938690015765805
0.6083319817751627
0.3929512842312185
0.17922050066333786
-0.03554917612418745
-0.29728941057056063
-0.5219737751799701
-0.7267121496553218
-0.9306725950976347
-1.0710947445653483
-1.2136664529723702
-1.340501208365573
-1.4844345647974222
-1.5925200426165163
-1.7010997835803878
-1.7999956445730358
-1.7491816319626325
-1.1219910339319354
0.10965919813311564
1.5063077877834155
2.210686650032118
2.228667404607248
1.9820953071552254
1.7813472579627827
1.510817471183654
1.1751900520611398
0.9176987453492206
0.7212971835843522
0.532699565036846
0.2509903046413237
-0.054296010798601795
-0.38513416554804897
-0.5898959478584713
-0.7720813226420419
-0.9127021634853918
-1.0496566537650083
-1.1510327095028396
-1.3016638877339273
-1.3605034841385257
-1.5177021873932655
-1.5865236880426843
-1.2068869228322985
-0.37211667055850006
0.933854978707727
2.300256331549783
2.624351520982661
2.479074937772156
2.275709120255099
2.024668615946352
1.6963819312266721
1.324515442868094
0.9024223208131524
0.6678626548761197
0.39071620586867306
0.1352100318689052
-0.14263328875051767
-0.42382106454062884
-0.6567959031787683
-0.9048436638380848
-1.1094278171213385
-1.2450458691276132
-1.3852091879623039
-1.5305084731922387
-1.662694689653332
-1.771794993129085
-1.858437409991868
-1.9255063109440247
-1.8615388723930226
-1.2129713046440007
0.410774762874077
1.3407529331789358
2.084082442446876
2.1873990703985258
1.9784100103873203
1.7161056466197555
1.3733774128716356
1.0320396682585695
0.6126293330037809
0.34567597226420643
0.09846487289550399
-0.19198126653310787
-0.5450187215335639
-1.036843745116132
-1.4030788310732212
-1.5305842070240414
-1.6709019612278764
-1.7663168128329598
-1.834034265992812
-1.9143804826156956
-1.9831022739614175
-2.0433769824734243
-2.0940913562960377
-2.048592217614033
-1.279960450389464
-0.013178292403548633
1.5083368004993496
2.0907825734184233
2.046729505229208
1.8723281192882253
1.6391018770250003
1.3393644189871965
0.9892720544575209
0.6034332408659084
0.3321971452825159
0.09872104218542144
-0.17251330177305443
-0.4660519243175323
-0.7427205152251147
-0.9638165380071035
-1.1345746909606063
-1.30816910197765
-1.4821446103661406
-1.562490742697473
-1.7292013141637217
-1.8318978686019638
-1.872101153294649
-1.9627230830379216
-2.016679004625323
-1.9075357550475727
-1.2255415940999292
0.24801588324020146
1.6014490636477086
2.243527864885531
2.265731355368459
2.0097232654687693
1.7398618757506337
1.4016873279789461
1.0085958935011055
0.6270588567335639
0.30800207924386724
0.05345193697191163
-0.1524865772107083
-0.5079542694986747
-0.7951095058448086
-1.0670463454394052
-1.2653193003693193
-1.4160060716493574
-1.557977016444741
-1.6811489469230665
-1.7902625481671433
-1.886939808941334
-2.0183938436015367
-2.1106056990100526
-2.153090283226646
-2.0707747990113816
-1.739272729252364
-0.1319183693039956
1.2781916134270097
2.1378811178488384
2.3239787152672
2.0846287860200357
1.8101568725556998
1.5030588282235395
1.1732891048574703
0.8071566569863139
0.5007650271439565
0.2770315404869701
-0.01113047659922134
-0.29320219593160535
-0.5516902147225107
-0.8300770840669314
-1.157644188730254
-1.269186395262977
-1.3781347829225898
-1.5155939004017227
-1.5684684470397925
-1.694796895524652
-1.8095653441380626
-1.9127065751399266
-1.932733321720422
-1.5777168183866117
-0.1872854465591234
1.3205153013710966
2.0722837454241883
2.1990227024157445
1.9751206049777201
1.7833766031501697
1.5208526872887358
1.1507623220058618
0.7461641476114926
0.37305765861366974
0.09943963374795858
-0.11678360165886009
-0.38138515128629513
-0.6704959052563654
-0.8958594708526478
-1.105411688586584
-1.2559198215002754
-1.3798062936645112
-1.5202889421727868
-1.6709756754528728
-1.8051530224863843
-1.8940131187467677
-1.994491027659898
-2.094968936572992
-2.195418279092849
-2.0880217006385178
-1.4723670701475204
-0.07361326873373639
1.4533254127115456
2.1012787874671552
2.1131028259638875
1.888856939769095
1.6463279174464491
1.3846995758722735
0.9828482002615311
0.5021556220085025
0.19617014034567642
0.058897406532067875
-0.17155034346825665
-0.4028555409993201
-0.5595697325555636
-0.7393850464880883
-0.8600625446796585
-0.9630292163957365
-1.0771375703206918
-1.1629875954506765
-1.2325951473170742
-1.3215742200973313
-1.4158636805948819
-1.4629353412616157
-1.5385129892821117
-1.2804769271160268
-0.3528287306198479
0.9169781188264217
2.0692576937719283
1.8892823713932154
1.4064787380437844
1.2214359870574394
1.0363932360710941
0.8513504850847488
0.6663077340984036
0.48126498311205834
0.2924318192783012
0.07140453885865472
-0.1957634442839315
-0.5771913608153842
-0.9314405546063611
-0.9110917841355551
-0.34151839390412486
-0.39042233810818516
-0.4393262823122661
-0.4882302265163264
-0.5371341707203969
-0.5860381149244676
-0.6349420591285382
-0.6838460033326088
-0.7327499475366794
-0.7816538917407501
-0.8305578359448207
-0.8794617801488912
-0.9283657243529618
-0.9772696685570221
-1.026173612761103
-1.0750775569651634
-1.1239815011692442
-1.1728854453733044
-1.2217893895773855
-1.2706933337814457
-1.3195972779855265
-1.368501222189587
-1.4174051663936678
-1.4663091105977282
-1.5152130548017988
-1.5641169990058694
-1.61302094320994
-1.6619248874140105
-1.710828831618081
-1.7597790009921388
-1.809987779067461
-1.9226123070690517
-2.035622785366281
-2.121825415707812
-2.1695693433623315
-1.9689091094064202
-1.0438487650405295
0.721028466111964
1.7002764207155738
2.1749054
1.9553349192922451
1.6755578793890207
1.4224872105400947
1.0522044010731577
0.7641691649750302
0.5366372975640394
0.3394379284150193
0.14026708635878593
-0.07999085721494142
-0.3932265344835455
-0.6745064701007712
-0.8759617099197233
-1.0392900322851932
-1.129199837892991
-1.2381537721658396
-1.4050844694214535
-1.5435953756309448
-1.6409462628214784
-1.7805744764242373
-1.659792053275812
-0.9167535710253527
0.4348107082796482
1.6834484256711915
2.3244543635912955
2.2368335431263073
1.9413301175289137
1.4767900057394532
0.8864284956051318
0.36260960541719833
-0.024137657026134227
-0.18764609960611667
-0.4357459698617421
-0.7038339467533861
-0.9362022398548415
-1.1716656232254146
-1.401072975606888
-1.562135327861033
-1.6509232485512066
-1.7531445868291666
-1.9143133676592046
-2.1700625258520163
-2.478852681496963
-2.680878944109524
-2.7901751765914855
-2.7992188683760078
-2.5104784607778843
-1.631752860603537
0.025581511701578297
1.3738855443536617
1.8272437668993176
1.754960598342057
1.5036379217818614
1.2897303594929181
0.9883569265119966
0.6197218885050855
0.320875056517489
0.1421355960887957
0.023865779427042016
-0.13946284259346747
-0.3650537798358945
-0.5575005215635566
-0.6790193492285885
-0.792904305028161
-0.9241774183343727
-1.0681133350464522
-1.208734175889752
-1.5156333383722638
-1.6808291921289702
-1.6406259917278514
-0.8406376157000361
0.7003427442069322
1.715006815066455
2.2464127
2.1393814258585357
1.9065081815040994
1.5456879750181576
1.201126336317028
0.7322374569324535
0.4389371797455417
0.2543042448403333
0.06773764229217857
-0.25008572188481093
-0.5939900259420678
-0.8019474038347534
-1.020853603841578
-1.2018562861182185
-1.3199598452986387
-1.394687156626534
-1.4619986368667004
-1.5667180653368145
-1.5523843788482425
-0.8826169989966515
0.44956887131435375
1.8828086545001552
2.5528927923517766
2.5745000966706675
2.39427901499071
2.193646658902637
1.850630020605332
1.3278472457011574
0.9430435485561264
0.6241508410238273
0.3762815355817192
0.11008638360386794
-0.11834738912649533
-0.37932245425198957
-0.6357633654602547
-0.7906879699667082
-0.9390888607526249
-1.1313859858797013
-1.2654663224977512
-1.1378836705717612
-0.3420405109100909
0.9505309098175708
2.029420573113544
2.45448632304788
2.5324422
2.4890441346912215
2.2654306332273695
1.8307923614219217
1.3766821861527023
0.9605765477143209
0.6465208163486748
0.3409481864322238
-0.013567942675183325
-0.311925602743632
-0.5883618147764738
-0.8624325152337837
-1.0677198762462812
-1.2522612056527807
-1.431670887456145
-1.541323239382167
-1.5062882438979865
-0.8677288066757713
0.24299962127503388
1.5687912094166592
2.3179201000000003
2.3179201000000003
2.096406083762926
1.8335750117081946
1.4396154587645638
1.0126529259854946
0.650296253624543
0.39285755881781736
0.18383270811269486
-0.0921607345241843
-0.4398469088474585
-0.7601012652962351
-1.049574110298671
-1.2530524754501273
-1.4499774919730728
-1.5500674033034372
-1.6761707598909767
-1.8354957253258104
-1.9452904156393878
-1.5552284753959333
-0.3602648271553197
0.9929096370018632
1.7565296910477888
1.7435376825816016
1.507589364911842
1.2230897152259892
0.9116504023831224
