-0.72426934
-0.25189165489168563
0.6708428712283607
1.18976449190515
1.275842258651311
0.9792158615866403
0.5986650314146588
0.2739461204743655
0.08382344376198876
0.019523856606566713
0.04258038688031223
0.06315344394321495
0.017040384206450876
-0.10499888444672567
-0.25408240440050284
-0.42901233577577064
-0.5290096434890749
-0.6590325455872247
-0.7062627081144607
-0.5434989204869849
-0.14814087341024895
0.5242866726664838
1.0365432194506041
1.1145494473273418
0.9053026094601548
0.5696621441445662
0.36168661441623706
0.19393538829746704
0.08839133423744429
0.072031778
0.048323264989665216
-0.024822738217142173
-0.1501457727380546
-0.2970378238302348
-0.4205045917746736
-0.5317550326403413
-0.6223579175869994
-0.6839667830322849
-0.545989377381453
-0.025882774643696982
0.5689921716383144
0.9230325689782987
0.8543627858900026
0.6143648169414823
0.4276601130853182
0.2100090834045834
0.049893897638842694
0.004443778305130236
-0.03847167380779741
-0.06303891947362035
-0.11829476585484142
-0.24030991732315665
-0.40244387973815826
-0.5125768427726567
-0.6250599410174482
-0.6919469251706871
-0.7716671225373656
-0.7609591398714199
-0.5567238452453258
-0.03168021358647598
0.5062510408254697
0.7371954829134234
0.7819589605254178
0.7494825668683673
0.36537821328887976
0.07429383803848795
-0.08516630822321336
-0.13821316439489864
-0.13436882908682118
-0.23398141716982687
-0.4385960581425612
-0.680326156184055
-0.9065948132363603
-1.1281406095669906
-1.2941662829834735
-1.4205266168983366
-1.51141415625321
-1.472965745342557
-1.0009536164871942
-0.009267230672545868
0.880723383166012
1.2112259162975125
0.9147871721061729
0.4969190670889574
0.15508565944534938
-0.1069482283835702
-0.3243553935775172
-0.42621809693596757
-0.44994804090730756
-0.5425499292382215
-0.7260783498275005
-0.9863275896055821
-1.1623574628525675
-1.3702849670420603
-1.553363471900808
-1.673948954887414
-1.7480851000000002
-1.7506606692174704
-1.784590797689232
-1.3405385382190333
-0.33531364846503403
0.5928476250356551
0.9454899899585131
0.5995989890639845
0.1467195306181397
-0.16538879053924282
-0.40988128929852663
-0.5556176258942592
-0.5502666894282879
-0.5094652248369255
-0.5471709663364855
-0.7126642174119262
-0.9284081365706982
-1.1408140643681461
-1.2685398321729684
-1.3706217915328158
-1.4611956410192823
-1.546273802027718
-1.466811192007628
-0.9811874446368237
-0.08680720831660715
0.7073477852587418
0.932688417822735
0.6336367909220783
0.25640810839694317
-0.031191941637285073
-0.2711005499640139
-0.4083033396856405
-0.43987608
-0.47224055152415695
-0.5531948347257263
-0.6953821944284414
-0.9483288566989432
-1.1488566495316692
-1.2625733542428295
-1.335758791055802
-1.3881466828425875
-1.405719370761988
-1.0985066550380136
-0.27586912845185174
0.6985280841474993
0.900575468365103
0.5357309093875965
0.12226626701797721
-0.06218597273980886
-0.34862143794673095
-0.5610643080803517
-0.6668007794742209
-0.6231856610263894
-0.632135595168875
-0.7763653809920065
-0.9650632237349761
-1.181396943996976
-1.3910841847442326
-1.5315715216899528
-1.6419200640385925
-1.758151269940676
-1.7888745518489513
-1.6156066723505806
-1.0331376594497317
-0.1198898673616251
0.5989816950998409
0.6685890972878029
0.2754774321478289
-0.15158800426099803
-0.47152251630202835
-0.709241828654949
-0.8099874764496214
-0.7614886168274095
-0.72426934
-0.7939828811144087
-0.9286899478886905
-1.081995500744079
-1.24948735676117
-1.3892843258102403
-1.4568215457635287
-1.4636918
-1.484923009448109
-1.5132822070517413
-1.2564642435846294
-0.46849994116939153
0.5079412505101497
1.012014361412834
0.7808547472166348
0.3836280287520235
-0.0872112071518664
-0.3047902129087227
-0.5355564682951568
-0.6373337078951712
-0.6109907108459711
-0.5552897805413649
-0.6006910040150919
-0.7660271974806534
-0.9214939586443065
-1.10928710869499
-1.290234503636676
-1.4580393436831571
-1.5552944410591407
-1.5881244727881922
-1.6266904093651298
-1.4894794659268058
-0.7735425225424611
0.21543722489626588
0.8313128324294693
0.7525833752500468
0.2609861124480296
-0.1272423598018276
-0.4089903958091158
-0.6059168860209244
-0.7116337383171728
-0.6839719621103698
-0.6383542691573699
-0.6661590469502078
-0.7588111791942977
-0.9124713720884884
-1.0380716414267057
-1.180875200098397
-1.3270546467557842
-1.4178630117487723
-1.4554648661625387
-1.3536143964976928
-0.7310022637637402
0.2502269207305139
0.9694514198101692
1.0630425480167747
0.5867776141470151
0.105159024743459
-0.17850121945835756
-0.4883961624772306
-0.6243290061457606
-0.6642787778189655
-0.66739068
-0.6955769643959032
-0.8203253474642515
-0.9803084809628986
-1.0927642303913354
-1.2064875455810935
-1.3304513352807161
-1.4434194089998866
-1.5240466469312752
-1.5489635765993472
-1.0628128750988386
-0.13380907543132362
0.7294853093213634
0.950362060592927
0.5763463951295696
-0.03526027800433869
-0.404614116303338
-0.6522731912695516
-0.8189929686613667
-0.8213991780814924
-0.7874752307906461
-0.8142607887737318
-0.9330936733307525
-1.1112358320965696
-1.263699902298368
-1.3692202763060106
-1.4813682464960647
-1.560828122812591
-1.4317106645937088
-0.868140446688425
0.2527054790547182
0.9401201653850455
0.985690991877858
0.44473928711798294
-0.069781930706478
-0.38701591499024085
-0.5808779832477411
-0.631787615988266
-0.6005319449666898
-0.5623594004257882
-0.591081359889249
-0.6745382547545037
-0.7946428499959028
-0.9369100982078827
-1.062331833386552
-1.0911118864145781
-0.5017685277643481
0.49619420686577137
1.2327787905691963
1.377616147166217
0.9078519800518197
0.37433156626787667
-0.011502258684868039
-0.2502071132693882
-0.37051673042109196
-0.38299743
-0.38584364216055295
-0.41573662664235245
-0.5505250083177632
-0.7005128900036619
-0.8596623229349273
-0.967963273361468
-0.8268273009519089
-0.11333415254471829
0.8656453251514246
1.3675963090944832
1.2227320779902782
0.6854188148046088
0.23523528460213894
-0.07463881246227336
-0.29037786772316465
-0.4101243430579107
-0.4193616435322103
-0.40860392755706226
-0.4631117963935629
-0.5850918477748861
-0.7545573448012973
-0.9309779788013491
-0.9563050685964025
-0.558505890722634
0.31893142227654564
1.1384152228711393
1.3036828791435855
0.8692683510437653
0.34625318357842494
-0.05845988493340912
-0.3167694898132498
-0.45145145080750043
-0.4368604677239129
-0.3750888911354361
-0.42165906344596965
-0.5394984277149454
-0.6620446235025055
-0.7698965972097037
-0.8755374231129874
-0.5360150986554824
0.17650786126268436
0.9678289781865712
1.4482611819240314
1.0963992056149576
0.5634055884689133
0.1698561673869386
-0.1280772965835714
-0.316284702302482
-0.3219534177664946
-0.28061586
-0.30118100601226505
-0.403342933765942
-0.5210859815521777
-0.6562079681726567
-0.7839024252276565
-0.6394069992431262
0.06588908387251749
0.953374857744899
1.5730922053643748
1.386404425817292
0.8170132868377573
0.3059691644514663
-0.03856728878319303
-0.2470434443136278
-0.32034320845668884
-0.31020375812448947
-0.31309204968560556
-0.4131820906674676
-0.5814169376198906
-0.7889048842469973
-0.9489067031544022
-0.8524112635154519
-0.2131677425166516
0.6623123236643704
1.2624746759466035
1.076901459115288
0.6026374497602857
0.18426409985254744
-0.12943034863947273
-0.3798402714443037
-0.4347778772287466
-0.41217588333833766
-0.4343407479222012
-0.5331506634636913
-0.6811888007567567
-0.8101130083846347
-1.0016662134067496
-1.0413420951540115
-0.5288490572744069
0.358827341239474
0.9891309008078024
0.9879816451847401
0.5113348125866218
0.04684583173262896
-0.3628166472614327
-0.5626245312231324
-0.604519147967396
-0.5532274873764759
-0.5108607869183994
-0.6071430705241039
-0.7558775383805081
-0.9387345491571957
-1.0771238833495222
-1.0595047275429603
-0.5874783865737718
0.2928260191402379
0.9537965677970505
1.0569618302632804
0.672318042658214
0.15339800494030423
-0.2296436391213455
-0.4606413010305439
-0.5095104208036737
-0.4569453871190808
-0.4042594717604469
-0.4216084691047564
-0.5712104755695828
-0.7207716795744973
-0.8547737293867862
-0.8083845407306653
-0.1562075361382893
0.8464466467872761
1.3486715697854976
1.1627763098036752
0.6826140029628647
0.18294519903287199
-0.20316538562700615
-0.4364666155010799
-0.4512744681310781
-0.41276033462575906
-0.4053237649566432
-0.48310252940206977
-0.6444982396968327
-0.8535850127184064
-0.8973769567025716
-0.5345305708692979
0.47265067602001937
1.1457414737649727
1.2217622808865027
0.7221860710407206
0.18235996054265172
-0.2430792771847574
-0.4601015668645729
-0.55363338
-0.55363338
-0.5549971773111237
-0.6233556865275548
-0.7311432171720561
-0.9758443662947369
-1.1376866260509895
-1.148771656306304
-0.27712859257440214
0.6525554810565195
1.2491004424677803
1.0350172044956938
0.49263433158126946
-0.08994907345655911
-0.5632686799830436
-0.6850975051050411
-0.6439511816515383
-0.5801952928055067
-0.5735122303558474
-0.6496993663503685
-0.7936659576224767
-1.0028811284165913
-1.1660061575431848
-0.9191026053906974
-0.15806933934335388
0.668293500356834
0.9936329794779369
0.6083100363506426
0.016506194389331708
-0.5277121925838628
-0.8702805764070949
-0.9949004275535318
-0.8569115845264232
-0.70550874807137
-0.6208677212761301
-0.6944048504935102
-0.8048368755455979
-0.9297524319452614
-1.0079142084922097
-0.4789292091714863
0.38567277570880787
1.1953996982966302
1.0961270841067092
0.479881653224248
-0.06533924676948873
-0.4688455357587248
-0.7892925582413525
-0.8444672884837756
-0.702260821153743
-0.5954346596998512
-0.6003517203419055
-0.7122677470742316
-0.8107982871108378
-0.7205758133394404
-0.17108060185594148
0.639966060649191
1.2560634582280685
1.0915835528699571
0.5555524438169888
-0.11209808188639653
-0.5944838409370027
-0.8525709829758749
-0.9081500846385518
-0.8041716404154674
-0.7353042406785133
-0.7445482838557892
-0.8268636926972737
-0.9206944209373986
-0.7629448984886535
-0.1277713965932874
0.7221688850270728
1.239746714489231
0.8133706910230993
0.16714170908629417
-0.48670141081088625
-0.8937448992902529
-1.0699674026065527
-1.010517721953102
-0.89443378041126
-0.7934384617612298
-0.8084616270642349
-0.9046464966226884
-0.9386969768542865
-0.4338882559102307
0.4855327482343656
1.0340947745473985
0.9487171942922358
0.49206968544766155
-0.3243481031153515
-0.8771514992381229
-1.123328760280987
-1.1244050315199354
-0.9198631571099315
-0.7690272104627248
-0.7701147457660946
-0.8627038677608044
-0.8907517855383675
-0.5094656424995561
0.3787367287783392
1.2297198016862327
1.4766856562402215
1.0208343916256426
0.3444180582879453
-0.21248667099735907
-0.6117823299947823
-0.7897864774988214
-0.7071209719237516
-0.6114548211845396
-0.5606245931298499
-0.5647903732767919
-0.6108541644424145
-0.4224908657810922
0.1472112378200325
1.090676028526236
1.6024028360260996
1.1820318116835407
0.5673946117177873
-0.02718062128706225
-0.570978591915114
-0.775613780447487
-0.7914750753487588
-0.7313114356467473
-0.72426934
-0.7889266241789011
-0.8455448172162089
-0.6728109597836205
-0.024002553669779214
0.9613167263919905
1.4871528430140253
1.1994310830658743
0.362481091257133
-0.22392332227341682
-0.7618505439060458
-1.0432753841021851
-1.0478197257460629
-0.904814771306648
-0.8208329413388655
-0.782062690997845
-0.793928244596921
-0.6785433749102704
-0.0890759812134035
0.8080592154988767
1.4433799453302962
1.3014730801655832
0.6146665514859727
-0.08006999724249346
-0.6781538831163171
-1.01048010499058
-0.9930037463342497
-0.8188521656001428
-0.6299226067862659
-0.5598391690935861
-0.5438749717388945
-0.40406909444129413
0.31735285177480627
1.186357187113537
1.7012606948431421
1.5054863497289868
0.8432478075430032
0.14547811307749026
-0.43737199165346996
-0.7474922705319769
-0.7596148272408558
-0.5886120358626625
-0.4304248538584291
-0.38673282852220975
-0.472803578869315
-0.37362865576120047
0.40057073475114974
1.377745392914004
1.8650011348997575
1.50440472918472
0.8084901363797348
0.23010997277560702
-0.2757720072710789
-0.5987403415939634
-0.7232009917120522
-0.5943730644806619
-0.49753564073598455
-0.5015658568259704
-0.5854930099074156
-0.30553734246380326
0.484561021243978
1.3118233598394242
1.731266031843552
1.3704743424484505
0.6878761386241977
-0.020513351052272435
-0.5425346927912202
-0.8573148104714081
-0.9178453295116361
-0.8184266701974547
-0.7755411673795876
-0.7811665619526034
-0.7875987244438706
-0.4719763692751639
0.46812149517466856
1.207571026211393
1.3805236769870628
0.8835038547547884
0.15609858625943862
-0.45854970702352704
-0.8827434569463578
-1.0235272123379817
-0.9391619900762952
-0.8020351596561878
-0.7434944955444961
-0.7645076233707866
-0.5797934664313984
0.0375331577292482
0.848669966115112
1.502729113116305
1.4067521902284852
0.8401970058049952
0.15054703708841521
-0.43193895247807607
-0.7429573864682073
-0.8023695156633058
-0.6452782862332621
-0.5322268170246706
-0.49806964029264433
-0.550117653697149
-0.2680712099135393
0.5270485157777193
1.449064307215682
1.8339114748081011
1.3571102824358958
0.6487533623136046
0.07510429538835542
-0.3803811588783236
-0.6526695302035692
-0.6697905710594322
-0.5163438173271455
-0.401396101712641
-0.4016404989659709
-0.38474277187885236
0.092472505587076
0.9666236536124949
1.703069854612808
1.6245138623446818
1.0408876123370396
0.36212611979468745
-0.18177122925250178
-0.5963794020698522
-0.7532048067984566
-0.6946558037883126
-0.6386533842377626
-0.6921066071763631
-0.789067412859782
-0.6020834538656892
0.06699718103403718
1.0014062043599694
1.4572492954876382
1.0496580104504165
0.3501697315916449
-0.329961543069927
-0.853078455513228
-1.0362990265183323
-0.9979459908720572
-0.8410320862129086
-0.7602340363842385
-0.7562350825090327
-0.7396798608666048
-0.20125622634224272
0.7410418617112641
1.4994436855348097
1.346341803509899
0.6142555945975633
-0.10266730563748744
-0.6083738565889288
-0.9473891923991917
-1.0002328501364017
-0.8820075235783317
-0.7770425585666272
-0.7265332273843214
-0.7560842598213092
-0.47903298432494
0.318193277195176
1.3247613995793186
1.62925558668155
1.112455981452044
0.4667524093732959
-0.0602202395985536
-0.5937405961141776
-0.8119982727200176
-0.7629727291381059
-0.6262271344911094
-0.5641374449735544
-0.6071900862181535
-0.49012967022418985
0.1398696908620853
1.0018230374691253
1.4713341463951446
1.3110366766727748
0.5913201854616503
-0.11777634388418781
-0.6175113952273181
-0.9386769750418906
-1.043473474503695
-0.9176292895952707
-0.8466361422213292
-0.8563794058496299
-0.8480709239387784
-0.5036967534593717
0.22587479748063938
1.1822745680885365
1.3698733796917353
0.8670820540827572
0.12193373188484224
-0.5956298769719688
-1.014989486749684
-1.1398265103711154
-1.0903100639112284
-0.9988092914093557
-0.9534458628407765
-0.9855478681035794
-0.7558988415291522
0.17414901489174345
1.1635860532254096
1.5600166140629195
1.0055074939280402
0.35292872943796944
-0.25945774496138563
-0.8407237058772333
-1.0225455232816199
-0.9279978270222736
-0.6898429613377093
-0.6176258277969083
-0.6505210170746144
-0.5898244016200088
-0.13632331665342795
1.0712260247287224
1.669913946805127
1.5371097922544406
0.9089337721924571
0.2140914186308524
-0.25291554553850615
-0.6525875721707204
-0.7401318887165853
-0.648821275859216
-0.510673274425998
-0.5018018446713342
-0.4805351882828719
-0.15124430402910033
0.675503527330882
1.5900638124852318
1.808997499443879
1.4320804077630074
0.7519374808420011
0.10198482983040251
-0.2853648732556159
-0.564810501762688
-0.5439707508277007
-0.41333245120143136
-0.33669523428987624
-0.3942187880127896
-0.23384624733933615
0.6747559069015248
1.4800666353025664
2.0370937469830457
1.7215215121236564
1.087574331349899
0.40856887249796153
-0.1632330743994317
-0.5362052305301008
-0.697504892346675
-0.604653319689798
-0.5171803143862997
-0.5325333748936696
-0.6401612551566817
-0.21450057915621373
0.6226166677298844
1.560709346240783
1.8106944209801688
1.3043980993002813
0.49337252260250253
-0.12017776816057184
-0.6242902687886381
-0.9191116785136745
-0.9459631826566048
-0.8439035558872672
-0.759846827854015
-0.7436213124500647
-0.6570036646354329
-0.1405795443077303
0.8372808623839014
1.6917936673668823
1.546587545554992
0.8621798133782059
0.14050718273318497
-0.4438969072462523
-0.8308264770440004
-0.92903248
-0.8083676249351508
-0.6796945236139564
-0.5997211004272867
-0.6322340311904808
-0.44034174022835226
0.2776430932652221
1.2739177927697944
1.9430558700741543
1.6647084437234145
0.8818476219173775
0.09260284455719525
-0.3660879268973757
-0.7157817572448706
-0.7571670590515043
-0.622264601578524
-0.5085835539610819
-0.5528520905300769
-0.6935280217267477
-0.3012480016270187
0.7427764341900724
1.7326700991355506
2.100873647467689
1.680920746160275
0.8865885455645728
0.14298654344161538
-0.41852978229194593
-0.8012259388053642
-0.8691588011726261
-0.772220651854248
-0.6923023880042586
-0.7422759061839524
-0.7273163657646815
-0.31623036178086983
0.6542731439122063
1.5409181268886498
1.8311836582662755
1.3014458165765064
0.5276575213320689
-0.24721557242411388
-0.7890056811679984
-1.0125534408416617
-1.0091591685747743
-0.9044698245585566
-0.8492561516310537
-0.8598522949654807
-0.8009509663746759
-0.2515264670155666
0.7683091091821944
1.6927417783276586
1.6825314324373957
1.0751553683477935
0.31953396334895834
-0.2359545978802929
-0.7082378331804888
-0.8477929316746382
-0.8053265423877733
-0.7254466123987613
-0.6717542741079021
-0.707763319219435
-0.5708956177474116
0.22719013261273746
1.5363578832610192
2.0886861740288327
1.9336660587435672
1.258056086047397
0.32197289501330223
-0.30359686906284095
-0.2409991736608418
-0.05789302757721804
0.12521311850640576
0.30831926459004905
0.49142541067365325
0.6745315567572967
0.8576377028409008
1.044481953385383
1.6131943168626837
2.1693552568616994
1.8158064418182203
0.9459875436915128
0.09468480855283312
-0.27281226847602763
-0.7353452664173323
-0.8705242958351999
-0.8193968674222953
-0.7705082435727478
-0.8113149208341255
-0.8962369782059965
-0.5516711125528371
0.3577076074646448
1.290543419414823
1.7648502178454788
1.3488206856279197
0.6765762052168218
-0.06523178179833809
-0.6264592812788377
-0.8825744986261912
-0.8830224299539571
-0.802867691954845
-0.78114799
-0.8502954483705506
-0.836793917836376
-0.20951532952924345
0.7679581282960404
1.5268513520564353
1.632724021632542
1.1428104676887922
0.6108459767434309
-0.21228900390017003
0.07678048129309817
0.1323423765996215
0.10458909621870116
0.07683581583778082
0.04908253545686048
0.021329255075940134
-0.0064240253049831775
-0.03417730568590055
-0.06193058606682386
-0.08968386644774423
-0.11743714682866752
-0.14519042720958492
-0.17294370759050526
-0.20069698797142854
-0.22845026835234894
-0.2562035487332663
-0.2839568291141866
-0.31171010949510997
-0.33946338987603325
-0.3672166702569477
-0.394969950637871
-0.4227232310187913
-0.4504765113997147
-0.4782297917806321
-0.5059830721615524
-0.5337363525424756
-0.561489632923396
-0.5892429133043134
-0.6169961936852367
-0.6278650828937415
-0.6339344708998373
-0.6400038589059314
-0.6460732469120272
-0.6821385655166317
-0.11002975241347449
0.7661183833955726
1.8160699533325593
2.1249665566300795
1.646056117070305
0.8139841496394692
-0.05736654496867377
-0.4950201613967318
-0.7443047525654226
-0.674135347504862
-0.5575854349020061
-0.5012554428096876
-0.4973128989737473
-0.5482799641024941
0.07598907671190162
1.1572123391564464
1.984899216294771
2.0142492281905167
1.3667268875856449
0.6068086588904517
-0.060872520886742894
-0.2861224313421673
-0.41844905569836044
-0.35522246018798376
-0.32087813553340777
-0.40667902202432493
-0.4890596628430817
-0.356687137241221
0.6507203555446155
1.514395409507959
2.1984369818717573
1.9055089118269462
1.1781256524773696
0.5173125064324522
0.007115779664751909
-0.3186134223692867
-0.34596025410900033
-0.2622514843565267
-0.21977650930754714
-0.3277391099164309
-0.4246707269791833
-0.10484789520859611
0.7794474359339828
1.791122867416088
2.1434385172865946
1.782808497773095
1.094355958636927
0.4478075807588162
0.006056099507337154
-0.2517231912011205
-0.2855328751447689
-0.271933625062045
-0.327353924196532
-0.44248747839295066
-0.6126694716638265
-0.34553845265289873
0.7216937728564858
1.617893376178478
2.1881880810422136
1.7885164312124244
0.8774343466797863
0.3505469622110274
-0.2669060265890079
-0.4746788480071576
-0.49675473
-0.49986077962551445
-0.5287615202131517
-0.6853207856247817
-0.8427088116004651
-0.7271264867358023
0.08370919053934903
1.158734357603029
1.906156738164819
1.726663377762353
1.0124430065154368
0.28436049373170447
-0.23477034724009144
-0.4961984496880804
-0.5030014485531736
-0.4336520590854029
-0.4185984150053936
-0.489146629291039
-0.63281742553263
-0.6447874624479464
-0.1474701730697448
0.8598382470470541
1.848265668910706
2.065467306697077
1.573241870331632
0.8360373344345687
0.21078458315192555
-0.18626888176197293
-0.29539773547259207
-0.2414847397572336
-0.17717697546005917
-0.26390154996258663
-0.4164194768726651
-0.5091815825121428
-0.3909135945924747
0.5281750930773272
1.8235218146351215
2.3128413720803573
2.155804730561063
1.4676659337976492
0.9153818599359852
0.13996131203683237
-0.21733047363297353
-0.3679664661246928
-0.35124238613967074
-0.39614046436088585
-0.5042931864711251
-0.7003682464895921
-0.8551673195888173
-0.622687478894
0.35567607782730426
1.6141336645628612
2.2226689704811746
2.041697855087329
1.393681693063284
0.6027706008446048
-0.00950960626233105
-0.3331772410087947
-0.42960505710377594
-0.39768877020405347
-0.42479871449405693
-0.5439613986169517
-0.724071225949183
-0.931804757776462
-0.8646183102478899
-0.1995020190667955
0.9033482340110243
1.8449497638440464
2.0735078194969674
1.5454580520415269
0.7593241771807328
0.033791055053723484
-0.3453969534526473
-0.4809746412677647
-0.4574319714137048
-0.43987608
-0.4900578809076976
-0.657490008523218
-0.850621333129372
-0.9559061320748087
-0.4427431117238181
0.5247603769051319
1.6646955827868035
2.0891432381860544
1.5998071076824472
0.8975635920029816
0.16571114120069608
-0.27348521922147484
-0.5529401679907914
-0.500232939165603
-0.4406904694048029
-0.4864880539214472
-0.625934176607152
-0.775676702188767
-0.9264851629790591
-0.6636407230470265
0.4531237572931909
1.6306668896979688
2.2883370426928678
2.02287487712962
1.3186893761912786
0.6413400032008555
0.07365749481022288
-0.34129436284528936
-0.38299743
-0.38299743
-0.4377993433634595
-0.5676186227757812
-0.7590907010165595
-1.0277320756266952
-0.924356982660932
-0.10520484910169348
0.8502053137209757
1.9200322137611376
1.9895523685244274
1.4460367267025147
0.7508242411713613
0.08371564050548058
-0.3498834574982899
-0.5971582773941453
-0.59058103190059
-0.5871303635497458
-0.6719526210237916
-0.8564760299544889
-1.0518539066996093
-1.263880418433333
-1.3354588255631323
-0.6414785461622127
0.4132258596950532
1.6276320247684872
1.7815845053587243
1.3304723165154928
0.569946377003221
-0.14965041296513815
-0.6250439247383927
-0.8150151206883576
-0.8042554069389467
-0.7289924009646753
-0.7717267379399814
-0.9259048056504112
-1.0955043581612485
-1.2946020200017105
-1.4037074994287713
-0.9005931060111081
0.3471880811178026
1.4656656583992198
1.9682980128539234
1.4746951582933796
0.7852911493807271
0.08289888227222009
-0.39578875840597616
-0.583769093197819
-0.5489456122903044
-0.488743517444307
-0.508456673384386
-0.647930842666189
-0.8630186656973103
-1.1085510167950432
-1.105653022749632
-0.5061972705772213
0.6407302304891179
1.7261467759585778
1.9539828548099285
1.556596510245838
0.8066612185865958
0.15639254169754502
-0.29216284020102873
-0.47636398772587296
-0.4721724591602989
-0.4462055432649812
-0.5056993316409668
-0.6350021564088344
-0.809180697144245
-1.07987576622385
-1.028403788804172
-0.23660113321979304
0.8378114677829712
1.8948836456493732
1.963712556258939
1.3472556457025542
0.6587154460330138
0.11985486051670569
-0.4546329133630066
-0.6530829104901954
-0.6350223664385453
-0.6113077689475425
-0.6922684990162314
-0.7986017753303006
-1.0461157774857746
-1.3151271355292136
-1.3419276940431162
-0.6311371541208517
0.44723545233682727
1.5036973642449871
1.8228189883944144
1.3421534206913464
0.5332710868318595
-0.10581272099662012
-0.48101933989123985
-0.7074305409375466
-0.672593450015381
-0.5938836531839525
-0.6232046031589503
-0.7474425819968848
-0.8781668467709296
-1.0365317212348115
-1.0319716952206155
-0.5430304789134968
0.6419733533222279
1.7046446085124465
1.9954689737855345
1.5222095227676284
0.8422850612455177
0.1021972085844427
-0.35631766491761
-0.5312336808558369
-0.5247735458900669
-0.4793370617684396
-0.5374110202316551
-0.6671392029961363
-0.8263839195943438
-1.0600869280349816
-1.0492632420129524
-0.3498629255965363
0.6073728047382371
2.0787824829815023
2.27875378212826
1.8396281742941787
1.128564856730646
0.38064448001457774
-0.07998759429116331
-0.324229931178709
-0.28581774940451415
-0.21567392777938468
-0.23929280746704545
-0.3802378955991678
-0.5638284025196126
-0.7792709199369809
-0.81010283639997
-0.2626948431963516
1.0460769485366095
2.2122920371965407
2.446757745853131
1.9515453362520438
1.332262644007926
0.6291062208595009
0.06386541281231366
-0.17679144870460792
-0.20716831636542168
-0.16535804985858485
-0.2153691324045192
-0.41770315992764534
-0.6731437730431753
-0.9112493444005021
-0.8003426358418296
-0.05311979904518416
1.3040107569961714
2.261914275358782
2.3376866231518685
1.780247388290186
0.9938097997175066
0.362400900506827
-0.008723868382019523
-0.10366897124373783
-0.09211484473433673
-0.087228445
-0.13828979022657384
-0.29159196012022015
-0.4827863336938548
-0.6862708767554979
-0.4946818665281396
0.5408704311358785
1.663881017825164
2.6373344744019636
2.434817752832464
1.8054998517936025
1.015930321479823
0.4145189171177118
0.07903596940162218
0.026402250666900492
0.11945937317920885
0.11584258846958927
0.005173154618885106
-0.13964093892089685
-0.3797255855895587
-0.5723841909836532
-0.37569110209955403
0.741809358189558
2.124067904823917
2.8309282827654147
2.605271530321453
1.8461986423550765
1.1085364770910955
0.47577282786505204
0.16389119296302804
0.08822792512903051
0.10036646536392127
0.01791813581040458
-0.16017696729190478
-0.4280760658543692
-0.7256965080387305
-0.9549185140640134
-0.7558010755708724
0.1368474161982698
1.5332872701799691
2.382337110183652
2.2459570686508235
1.608812321570364
0.8531572450229634
0.24429626530995469
-0.11153104903347376
-0.20242057966490618
-0.20276750508913746
-0.25266760345486294
-0.3980793543788091
-0.5862536743509249
-0.8097489408360798
-1.0336559364500801
-1.1732778708962952
-0.5246853876951248
0.7462131756952213
1.9057138916934875
2.3865503485286874
1.9994386960736943
1.3189594561779454
0.6233411504321881
0.21293891301880544
-0.03259261651210477
-0.06012297167413097
-0.11236907193685419
-0.2671959557348412
-0.4593490766980976
-0.6580649111497303
-0.8447624109613336
-1.091627645327528
-1.0066080494399037
-0.23901913022996712
1.1539646300170543
2.246585345863047
2.4450238801818216
1.9181678743811985
1.2249475971324744
0.5287255087905038
0.0025057807370222757
-0.1590979755753914
-0.2020195766558909
-0.23367160331262748
-0.328823477923016
-0.5194137135528502
-0.7964121572799049
-1.0552117686331428
-1.3179283386004912
-1.3883674122112264
-0.8947096383090769
0.235830695774569
1.334324054347412
2.109338754778022
1.9221386358875
1.2780363238994976
0.6066111439470849
0.0356508048891776
-0.2402428086985485
-0.35427299894957265
-0.38901558664292224
-0.42315099302091597
-0.5570228315269264
-0.7584726662312239
-0.9849564881718115
-1.2308581007709916
-1.4387943208094367
-1.4106969656271215
-0.7420575990388023
0.7122263910693967
1.753597614618975
2.26118159253145
1.880794579792525
1.1185614665165344
0.48140553671863656
-0.0214475539592319
-0.2093100462208608
-0.2585467368176884
-0.23365877031794738
-0.3457000379024556
-0.5125759933014059
-0.7558081810451787
-0.9728702327490465
-1.1961963502508814
-1.3854087570989042
-1.0680070909032806
-0.056969418383984505
1.3285484859147116
2.1348309043396805
2.059723368174157
1.4162054644008657
0.6943727070193026
0.1449416115910574
-0.2576110768459273
-0.3762475668903249
-0.3921198324345209
-0.43681452436924906
-0.617006712677941
-0.8417174564980601
-1.1154246576777425
-1.3987867481316874
-1.622075038776772
-1.7272599910790867
-1.5295370154195362
-0.6432308399577963
0.8277612098440563
1.5809926968440955
1.7112018890388696
1.1895359897704194
0.41803853684815984
-0.21465827290799055
-0.6096283342793666
-0.7211763703838803
-0.633616271340511
-0.6513799032255693
-0.7632874107213419
-0.9146350249987912
-1.149084247876407
-1.3135041994565493
-1.5526985344061341
-1.7046065831177686
-1.4598631939271294
-0.4259787907962016
0.9857686823922632
1.834335732864109
1.8219252859822268
1.2819482605825505
0.6410619355775604
-0.022497836492546205
-0.3762731454954046
-0.49675473
-0.48827055288414456
-0.520789496127154
-0.6603278668941548
-0.8519957929762261
-1.071129833512515
-1.3260596649822083
-1.5590216172030376
-1.6814579847867588
-1.3730746016182773
-0.3850246488639617
0.8325232919104351
1.7335491816643236
1.9014626457721029
1.448641082060073
0.7547443255135349
0.057702792632156996
-0.28006727094046385
-0.40404513439329964
-0.4063174653160831
-0.38299743
-0.4742190264896942
-0.6349963360480293
-0.9368252083011595
-1.163375891207041
-1.4731272400680868
-1.610038689875559
-1.8002965308761942
-1.2713755858691766
0.041840770149637496
1.292125784100975
2.0040350435519576
2.0272498605621188
1.5433769957975536
0.8631557246231829
0.26368595047743804
-0.1360067941795157
-0.2770943338656788
-0.2940183093675087
-0.31216010882014755
-0.41440317559078926
-0.705032606641111
-0.9975664130732989
-1.1937061056096878
-1.3588986721314884
-1.5038320188087386
-1.5798207812844558
-1.2772224388338296
-0.06154357779223962
1.3464439264050423
2.217159140684773
2.333337446514886
1.744462888384611
0.9886680344309428
0.32121551479137095
-0.02686959309159427
-0.1428121207673967
-0.08530364292160114
-0.08290896630087345
-0.20691480094457215
-0.4265771205641934
-0.695554596968619
-0.9744213872686923
-1.154533505777
-1.31177398630022
-1.354912034579027
-0.8646012722287013
0.48790481103097993
1.7130783674690846
2.7019454533628458
2.5619088646633763
1.9654932630134878
1.2760186658486452
0.7133180549703738
0.2194640627073548
0.13102458136425413
0.17406343636187951
0.16621639804338895
0.004777133542964801
-0.19356297220124738
-0.4803430411636892
-0.8132036360626158
-1.0571782527272282
-1.2685815414929351
-1.3682899375019864
-1.0714607147355801
-0.031268169522752964
1.3593404406429952
2.3162511758883273
2.288718147661057
1.72433585833044
0.9886067569484884
0.2919439592950396
-0.16257380966268775
-0.3306096327148073
-0.33227470931711034
-0.3525576628932127
-0.4594444171863276
-0.6662171204413102
-0.899833161927832
-1.1518810007025682
-1.4021397106402362
-1.6153399630829481
-1.7196456999999998
-1.1748492705986053
0.11261914556007235
1.5092355489175715
2.168698164236974
1.9198636258391457
1.1963244236649828
0.42957245709073366
-0.08760798076866683
-0.3633596362741146
-0.3898303695497599
-0.3188016457836103
-0.28464823322465316
-0.4186973159273131
-0.5905165650596101
-0.8225052899783485
-1.0247836927950489
-1.2348435941820464
-1.1603654994062358
-0.25299506433997443
1.1903252757306753
2.5132695488974024
2.670526098857064
2.170122073113531
1.3051505318332528
0.5587688055969712
0.09249939413549707
-0.07922907988889594
-0.08741382836381635
-0.06966291716021608
-0.1671296057622735
-0.2985655142017004
-0.5459796441671902
-0.8273521562311842
-1.0446178870056482
-1.0473913300326114
-0.27448779195989154
0.99627231520764
2.0946580072501315
2.5731239529257133
2.125884119042834
1.4415974744716218
0.6849030432262246
0.17265945570529975
-0.08837454148130175
-0.15548283
-0.12730199873046927
-0.17429595924436636
-0.34188683672453535
-0.5703217698604058
-0.8478186992933353
-1.12055466973301
-1.2127863175156666
-0.8083286526644015
0.4999961969413744
1.7936636659793637
2.6904086827286147
2.43110799553946
1.681422366673985
0.8281218020738776
0.3170062181729377
-0.03243852105050157
-0.09729838593371755
-0.08405088666566697
-0.14796231259691844
-0.30052575127431735
-0.5587722955201508
-0.7908593247837006
-1.107960497748443
-1.3340469028420077
-1.4749864009814926
-0.9942938641739685
0.3034606129724265
1.7690721468226704
2.690876734000379
2.548339062643323
1.9180554935239391
1.0981293085305566
0.3894934635182579
-0.018660713957624083
-0.12368731296215672
-0.0937793995662811
-0.07587064564857696
-0.2117192044036984
-0.4196599706562885
-0.7520542260429253
-1.015365055454753
-1.2664641155296892
-1.509805674781499
-1.6450874825201351
-1.3986962495494146
-0.4315177402068021
1.3273291987907028
2.398923206275369
2.551728948376404
1.962940704360982
1.1882413007740058
0.4135418938941924
-0.06355422052555271
-0.17491880013454517
-0.09501518271578062
-0.0036886343965366122
-0.05308098792363684
-0.2589494241828605
-0.5494876873072653
-0.7821765656373165
-1.0786035148399664
-1.2844948959648896
-1.4473174616115085
-1.1645851950048418
0.028132146410676295
1.842676678502863
2.6550574816793597
2.726691337196006
2.1771619913146085
1.2677262719142302
0.6142862195082968
0.05052830547136527
-0.03213779004544985
-0.00013404698660141956
0.01492179363200379
-0.05538707731015978
-0.2222578279393629
-0.4446486318208099
-0.7382299147589578
-0.9568688266616432
-1.203122834626691
-1.3633171025297388
-0.9842988362761753
0.14121880220193672
1.812691172525091
2.8534605737919194
2.8062996979692922
2.1690669511574487
1.3849677226446027
0.6605140645666507
0.1906253202915493
0.04376858326562033
0.0764738757989525
0.10359288037640872
0.030392592266186763
-0.1833114887106119
-0.46288072958293014
-0.7420179704923577
-1.0375550589011786
-1.3152169559246527
-1.5496725016315778
-1.4885362476733894
-0.6374767770768234
0.825445714383801
2.2935109825204094
2.9118225145803818
2.6927635014718767
1.9967749931097898
1.2163725031928623
0.5632881399565325
0.12923910202394956
0.019372862747440045
0.07833755120198235
0.12857269935568721
0.029650694110209208
-0.11995131484609317
-0.4760851704602869
-0.7343340550474406
-0.9616527252496425
-1.140324793097203
-1.09429293828497
-0.5782550653627381
0.6273646360890661
2.178535384122177
3.2713454224368768
3.091190620178624
2.2617092262032377
1.3731472574793655
0.8044348940021142
0.3061081242120326
0.2069150421798756
0.23044429651245044
0.231721373743919
0.08804166011633355
-0.1884111417785676
-0.4233864122488521
-0.712175827733963
-0.9703560894661585
-1.200633187116075
-1.3697212700054415
-1.2370998915620537
-0.31804488433165434
1.3146426894306682
2.667956714087756
3.099418231066372
2.7169696809920003
2.0178912850673987
1.1400387564248504
0.3858619445297663
0.10887256126406275
0.061806765043869415
0.11048608625122501
0.10719217539166138
-0.07098459554833998
-0.3476870826298464
-0.6516628721963276
-0.992791007882115
-1.2469571261759391
-1.4659683337174791
-1.661325125315187
-1.7230676865394676
-1.1543553230621173
0.1913896556685153
1.7426097289777531
2.7929858345448597
2.8655822691935167
2.2252884919639846
1.2929146743044027
0.6703883747492748
0.11123050254704922
0.02466125377517353
0.1150099030573561
0.176269835381839
0.14028314151698015
0.004650859612828816
-0.24104740924545998
-0.5226672190793671
-0.8307377332090548
-1.1571714863845035
-1.2803774840287212
-0.8534488618712
0.42426500982244325
1.997978156134091
3.0382255449195936
3.1301235565304055
2.553452901389915
1.7421710090076403
0.9488847624180347
0.4322790626765964
0.25103769655472397
0.31425372307160937
0.3521055950523493
0.2435557612778903
-0.000879502625391132
-0.2785885989059302
-0.624920548640248
-0.9642701038808542
-1.184493495530978
-1.294007348242974
-0.783256086931692
0.601958133740698
2.386788702493619
3.444325436763258
3.1664178790081183
1.3283597768014954
0.8940934560775906
0.5118404631313463
0.19340474918306952
0.12891043
0.12891043
0.12369719250880065
0.06430544936299089
-0.006046291511179811
-0.16414941921529091
-0.3259877748706561
-0.48078931526625157
-0.6357724977067299
-0.6906304642123783
-0.4143975531700516
0.338101287048155
1.0935951275125115
1.4797273586081126
1.4158112760888542
1.0697140703822443
0.680442057803355
0.29380855517860227
0.06966223462437049
0.02966569349983448
0.05950692547412045
0.054132602966580026
0.014504533690527233
-0.07896644877100031
-0.19568580531991425
-0.3058881057233689
-0.43319274190706325
-0.543912219113571
0.31466760427007057
0.7160192565457709
0.6480465566304826
0.5800738567151942
0.5121011567998913
0.4441284568846175
0.3761557569693291
0.3081830570540262
0.24021035713873784
0.18578908
0.18578908
0.16782760913212263
0.0879339060552457
0.026465200493133403
-0.16985835517277922
-0.3298313754755448
-0.4451140268442512
-0.5849795226993102
-0.6767841930730428
-0.6537970843568256
-0.20008780748635835
0.418307561870289
1.1358647859886486
1.4597213432512786
1.3013923529916493
0.9552095565783495
0.5765174232524852
0.18916771996875592
0.0151531269999999
0.0151531269999999
-0.004919742297809228
-0.06615327370460072
-0.14311444951756797
-0.28284152805934876
-0.43504737191363363
-0.5963908407443351
-0.7573631076571812
-0.8682873652616911
-0.9726223593594507
-1.0253646514166412
-1.0503787021302002
-1.0655412
-1.0655412
-1.098833049444429
-1.1347807760364772
-1.1787977481357128
-1.1792985
-1.0316524897684385
-0.5931745980207349
-0.10273989698135755
0.48803360442909144
1.0324504719295795
0.4402665961986527
0.3716869894904393
0.3194992807075204
0.26731157192461263
0.21512386314171605
0.16293615435879716
0.11074844557588936
0.05856073679297047
0.006373028010073889
-0.07805796521514226
-0.28305722183140924
-0.35226163908616126
-0.5552705940990853
-0.7284455381602116
-0.7592029488286987
-0.7989647909257631
-0.8376714086829895
-0.7441755499489083
-0.30838134113357285
0.33147274361412965
0.9689970120065936
1.2781262924941792
1.1216089700807765
0.8216100540984098
0.4900462086784403
0.19379999495764216
0.032163449984661266
0.016807800916394524
0.05730070993311894
0.05139468764922577
-0.01654536330740097
-0.15420905989029993
-0.2922996685590147
-0.4231436471163298
-0.5735169000684909
-0.6764424965981763
-0.7274903860365993
-0.7298264914955005
-0.4091483401611576
0.1749145537865124
0.8681485091845984
1.3292791146594056
1.2852851126102245
0.9724634775863377
0.6244592203795767
0.2982647979042785
0.08049956812432615
0.020781493043328814
0.0151531269999999
0.0151531269999999
-0.04204632680985974
-0.1711758440936275
-0.3421571355394744
-0.48312312182182693
-0.6201849908319066
-0.7538870167223325
-0.8076855854693418
-0.8956822187632348
-0.92334461
-0.92334461
-0.4836824861430244
0.13290869505713176
0.8026222773721042
1.296872553577197
1.1600262261628629
0.9143408380111832
0.561251471237654
0.25531121976480825
0.10594831729390464
0.072031778
0.072031778
0.0587771426377056
0.007322124505935222
-0.09504212009204521
-0.24545796669543915
-0.3849871155917787
-0.5346444844361788
-0.6191697170291527
-0.6762183186561717
-0.6184268029817787
-0.20364531912685646
0.4681444524449927
1.1152184901001312
1.3763042727731793
1.2967649218017772
1.0024624774746054
0.6507373496344456
0.4366490396049092
0.28581039081039994
0.24266773
0.22523830170903447
0.17794443838415663
0.08428182397657429
-0.037197804556420806
-0.18864063227619526
-0.3364393663939651
-0.4446577732991887
-0.5557472165922727
-0.581158108207271
-0.31234370100887277
0.2844343368074198
1.0738178364818198
1.4136945425612644
1.3932406352069497
1.1352516025351478
0.8279622769168322
0.5484035963145012
0.33916196873960475
0.24693585088757597
0.21563673581090803
