0.8042481
0.23880663699252508
-0.2984480655940818
-0.6336145999406605
-0.7409561113489607
-0.6290851949008275
-0.6322662018098517
-0.779927234678359
-1.0233027242729316
-1.2023361177568204
-1.0665456227574772
-0.28786003689734097
0.6275927327418686
0.9320574881659706
0.5829920248279957
0.026815666664611784
-0.3617773163010803
-0.5036703144537292
-0.4268247575829083
-0.37157912707883994
-0.46635846509332696
-0.6875551424502083
-0.8960267859052105
-1.005282871281463
-0.6588738159747523
0.19858465736529693
1.007810930498252
1.1455347414160857
0.6879876491680526
0.1440807854039995
-0.265726788562787
-0.4480582751385791
-0.40281685751745966
-0.3800795963400812
-0.5010477742462902
-0.7089369914667084
-0.9407652388822829
-1.125657228696301
-0.9273697884067594
-0.09006237832397734
0.9484527670285169
1.3425271661207336
1.058750074708219
0.4864960021302218
0.013838932068990561
-0.21411582021073078
-0.2267871085780645
-0.1821925825665097
-0.264905719288662
-0.46265841430135524
-0.7228277154722333
-0.9304182515745283
-1.1133726854216737
-1.0508655934877325
-0.2029754463659399
0.9572432213896771
1.5555343151065655
1.2873974750484685
0.6539248357856545
0.09533334975639529
-0.20721009300376683
-0.23907744299196046
-0.1625600676141367
-0.21820751496769064
-0.4333587550850663
-0.7233881209946623
-0.9283904328948517
-1.1474535307571112
-1.1615783992613882
-0.700858698725157
0.3104159119103011
1.3148256142754038
1.4822920861039108
1.0267408446916662
0.3871880919683713
-0.04782645040307355
-0.2365273952850123
-0.18724034364402736
-0.13966362960542988
-0.24585761479755514
-0.4754563555175843
-0.6874561051198904
-0.9269337483980785
-1.073729737688672
-0.7471512215142715
0.27137451125978346
1.2128380164669872
1.3574144258883443
0.8384473500400805
0.21073808982676653
-0.21641628500862398
-0.36819091193395476
-0.29525439625894934
-0.24709262785003389
-0.3610441848878585
-0.5982645507790915
-0.8597187380986494
-1.078382317019741
-1.192658861902073
-0.8597434607133116
0.08632589634812149
1.1180995156680855
1.4566798977852584
1.0782193325126228
0.4635047433910364
-0.001132776009211911
-0.22161812282596494
-0.2236094207298892
-0.16367363316610783
-0.23524347574033042
-0.4344692743734888
-0.6923192917433656
-0.891059849421919
-1.0685393090344903
-1.110171227594467
-0.47425975403053877
0.7449668207352647
1.7526683928399218
1.79761543862572
1.2811298752048936
0.6919409742523972
0.16975182033648217
0.019564707178381185
0.06370603654665048
0.08254121991419149
-0.07774666882117043
-0.3290222984946774
-0.590468094834434
-0.8172114666750876
-0.9247813195676179
-0.5753410846520404
0.4017341896449994
1.4781015636964037
1.7355976818688839
1.3146931388880845
0.6733733719474402
0.11736189768985865
-0.077466093
-0.06093120455755476
-0.05224324650329727
-0.1984671975137538
-0.46176185481514626
-0.756288759755134
-0.9878585399635228
-1.117534105754165
-0.7520392434848622
0.29676883037959456
1.366253107765482
1.7201239267048583
1.3643360143224839
0.7162259990497268
0.1807746682208817
-0.047753327153352676
-0.04811820009651443
-0.02260085547540124
-0.15281817951612234
-0.4300121348168363
-0.7074459435364806
-0.9663461450552298
-1.1529420965779993
-0.9553003371698802
-0.04719734804627729
1.1736909545896084
1.8418729601735593
1.70864646002507
1.0794729268632297
0.4211715438094497
0.08655871342697649
0.019494460056337756
0.06350332664605728
0.01746833798664931
-0.19924569170082232
-0.5013588857395619
-0.7697335813481062
-0.9994027256942271
-1.1565378577011933
-0.8325099584841291
0.16966155913475078
1.564746717395901
2.0243325140310655
1.610082628577434
0.9742716005275277
0.3654405120960992
0.06343663586743215
0.05273198425823769
0.1070285985264401
0.0285254673369192
-0.21386514122477837
-0.5191226654303408
-0.7838914435339893
-1.0043116530864273
-0.7440737291690653
0.2591899553046996
1.4867901306351379
1.9062579729658018
1.512333799764354
0.8204179404527103
0.2463672155563866
-0.02796722693043453
-0.010244333577024546
0.0009322535852243838
-0.11931394860168389
-0.41289900928575946
-0.7344086667679826
-0.9936976978014489
-1.107820187345003
-0.6572812188974684
0.5105439711654108
1.6405796730225308
1.9530308967764556
1.5663825696599483
0.9625587669354878
0.45970483461992356
0.19191843778453183
0.14640466824864443
0.0960153261595624
-0.07129009043377216
-0.35593762692014685
-0.6590797463120677
-0.9208508625829618
-1.113649109287514
-1.0210640396397082
-0.32328459040237123
1.0014814807466084
2.0212813642433316
2.1596279185350897
1.706476894567786
1.1067472044036148
0.6068624686942442
0.40670723357245264
0.4178203758344562
0.3072431462952333
0.08884393204104035
-0.24687666333147837
-0.6018368298831396
-0.8236022307422223
-1.0165996362016285
-1.1360477858369513
-1.2000795109297029
-0.675119869325811
0.6750887286640936
1.865266260123503
2.13348531685133
1.6729547893944985
1.0372356351876058
0.49613457237164416
0.23985286759690155
0.2269895673755543
0.18647184134560563
0.000408961405302638
-0.2684938491488957
-0.5700218118751629
-0.8168231886579931
-1.0021286408707157
-1.0914013290370725
-0.6409728324760193
0.4588955661390596
1.5396091039225344
1.8149730264963497
1.3666051258341678
0.7032914166292885
0.1967581401872473
-0.06152975792137037
-0.053977227
-0.08847801548186734
-0.2811204067096732
-0.6178375258088442
-0.9226682497336737
-1.1880594351321667
-1.3766912435373084
-1.3978294553636164
-0.8809214489090595
0.31204519887665816
1.4513937020209218
1.6905842635118107
1.228057495625569
0.5915439323183993
0.12297208436306045
-0.0671300495981123
-0.07009568175722396
-0.07320185820605457
-0.24731501732809286
-0.5396900192105708
-0.8589705867553693
-1.1214274886265316
-1.322038914559861
-1.4168421177113588
-0.8866576673755144
0.257304311761559
1.384228729167084
1.6715475601435443
1.3509158304635833
0.7746286977971004
0.22698951897933034
-0.04872159688288831
-0.08223426554301176
-0.08142849824942386
-0.22704992000995328
-0.49282531332017165
-0.7873296062429288
-1.0516275766490764
-1.2756693072872214
-1.2538360509542996
-0.6054978957538022
0.64592939170611
1.5906699705074179
1.6645401616636848
1.1780307514606072
0.5685317436588192
0.12281844250665255
-0.011530339266603087
0.0066976709740274275
-0.009150293310002663
-0.20349915054932066
-0.4701131960857301
-0.8047812134595125
-1.098827429194934
-1.2229572576290575
-0.6521665572205955
0.5593362135795622
1.5847445561818385
1.703504933064509
1.172798634294684
0.5181704736233695
0.01706723448218128
-0.17895422531031402
-0.10859630091375354
-0.12271669231544416
-0.35177797276480643
-0.6312088705767354
-0.9745859888061319
-1.2534454466429583
-1.4517056135291
-1.0997144271636912
0.13990257860637817
1.4925706266043395
1.953166244414995
1.5891854053118388
0.9120550658099392
0.3189204490158673
-0.015937551381113507
-0.11279001461593068
-0.07204788954521638
-0.21212679957420738
-0.5120203693137219
-0.8111371396800614
-1.1117641758471646
-1.3665508962612685
-1.511488639450445
-1.132098270139626
0.11486503695455913
1.4138323621880124
1.7985938040428822
1.4189854251566008
0.8252862999433371
0.25020977347376555
-0.06483883833972055
-0.10152244402448195
-0.09027493422681707
-0.21102941783374496
-0.4624391639162265
-0.7628048226748472
-1.0590187843786036
-1.327064022520254
-1.4285490301596018
-1.028149914884334
0.18330674802521296
1.3948701407085944
1.7717271646327248
1.4269910458221577
0.7835067892591489
0.21557673297680258
-0.06886654266780706
-0.09290629365474595
-0.061259220335503656
-0.18866426942493536
-0.451433238702694
-0.7988291340441285
-1.1153754865343875
-1.337945063720966
-1.129041334159799
-0.1470370635592525
1.1633653065856282
1.8226363391918068
1.6149319117645777
0.9725344633402366
0.27679283627734286
-0.10656755955553904
-0.16775615204143243
-0.12861203260757736
-0.21279326775873714
-0.4401681414882128
-0.7947629864296119
-1.148464371932345
-1.4515148102528517
-1.5702169459141273
-0.8186162711914483
0.7036039690749516
1.8107313973957697
1.9072490963833713
1.3796541981563712
0.5813329056593948
0.04569092341366711
-0.13123781818587477
-0.11273466
-0.13586905364807544
-0.3073100315315169
-0.6532476183519319
-1.0061517891489473
-1.2997840291061866
-1.50943538772807
-1.2450959186306494
-0.08557658934329165
1.2704146608057516
2.0047106710926657
1.7884096359846324
1.1548632367211846
0.49148310704043185
0.02082136199234319
-0.07654818026969945
-0.04845488490237949
-0.14184837919814983
-0.38173412748560465
-0.6958133123936405
-1.057659207866613
-1.362539440897585
-1.3144728014313838
-0.5564913702436983
0.8917308580475305
1.8990074608031047
1.828846704639599
1.2199953385262496
0.5298876718453353
0.10189892588102373
0.0047802069
0.013340479196932343
-0.009985667941077997
-0.2422511637326428
-0.5696571987482728
-0.956776993091276
-1.291465631770836
-1.1947526518750722
-0.2906460461448118
1.1904069444578713
1.9369748442374797
1.7419853471639766
1.0875913969725466
0.36571689230684323
-0.034014911670889214
-0.11980193402960479
-0.059210293567037775
-0.14138844187994504
-0.41399543725297927
-0.7585967559862621
-1.0499241655879574
-1.3889444444174286
-1.4930656400298683
-0.7883464809165893
0.6998393356148547
1.9496711020826136
2.0493289361072313
1.4536945189195847
0.7962230631189405
0.2042758952278843
-0.01932346963742612
-0.01772623842335201
-0.02393473149205931
-0.2831672046589312
-0.6346151331140171
-0.9870289266556642
-1.2790422641733126
-1.5183977846994465
-1.462341774097863
-0.5910000349577735
0.8259063698983554
1.8432525978007899
1.870382194072779
1.268800983567696
0.5410004198896179
0.03799320001073138
-0.15557751606675904
-0.09982547712302416
-0.10701907527010535
-0.29902181576745734
-0.6011263057511826
-0.9277472061331219
-1.2325366472980452
-1.4844115182401059
-1.3555233574385899
-0.46669150343035526
0.9582888890061425
1.9316329404231842
1.9653540177911504
1.3780893857423586
0.6472055516862708
0.14501920414103833
0.0047802069
0.04329773007513937
0.040441619636674794
-0.13216326271086898
-0.5198633409327782
-0.9131900830848034
-1.240748475720682
-1.4035020595329906
-0.8377731920411009
0.4611929785812525
1.7086844115332194
1.9936007045528923
1.5271629618011597
0.7999378426289696
0.17048035250883598
-0.12904186954561242
-0.10524094137699765
-0.06743506954319013
-0.2560314255065716
-0.5705222851769077
-0.9044171154015987
-1.247034999968625
-1.5454262372836893
-1.2646354994553692
0.043025280229279206
1.57763164905394
2.207234610367434
1.8504984328563334
1.1909104360201024
0.5012898044135872
0.03840944920593775
-0.059558328431283065
0.008662670054602944
-0.10368864297189892
-0.4274495431677813
-0.79150633845316
-1.1454184378912715
-1.4837021920957736
-1.662565744726801
-1.3051392292209334
0.12386265780294758
1.7250695827711782
2.290026099949194
1.927047805505487
1.1512401834186716
0.44941729661142327
-0.055765679335893686
-0.10795860521653676
0.002068587907758453
-0.0648316972465568
-0.35544739889778476
-0.7533972808095276
-1.126063536986358
-1.4417796674490617
-1.5255111313197616
-0.9093552532688758
0.402883127762827
1.874311987450692
2.1952401216092388
1.6388617856011207
0.8491367368732567
0.1614168059405605
-0.08227505107167683
-0.0186857008942208
0.007202595933641564
-0.11444170979779211
-0.43848763912183514
-0.7927891601841514
-1.1590966447893054
-1.2463225397060007
-0.5943809242062581
0.7143751131022543
1.9084403753102102
2.1238859858339705
1.5468033984743463
0.7558507642058583
0.1621405811889284
-0.023047425625441487
9.672250806917748e-05
-0.017433541763557013
-0.21728647665739403
-0.5940222915810109
-0.9870501325613211
-1.307401913943727
-1.212539404605917
-0.1855915190638201
1.3222323570962806
2.2708207609152025
2.244657731164457
1.540709703346543
0.7048164513582631
0.17239532844301203
0.03212505731964037
0.06866730265496668
0.02082313479767621
-0.23034622811687147
-0.6254799105447861
-1.0035323508597969
-1.3408778995813662
-1.2233546540342983
-0.07159877955250815
1.532705605887871
2.329873829010958
2.109088773374232
1.3924975231370547
0.5982453863865217
0.12754304059327082
0.022457122244214596
0.0165599089999999
-0.06884638804681295
-0.3617542032736868
-0.7620457680458742
-1.1198606305503234
-1.4410200861164053
-1.3795099961767658
-0.30280094647480854
1.2485360080681054
1.029703538875784
0.8108710696834811
0.5920386004911596
0.3732061312988382
0.15437366210653525
-0.03376182956571311
0.0043790608198397835
-0.07162849647506288
-0.3350779094699238
-0.7034747356784792
-1.0569367434267687
-1.3424835699777677
-1.2894257927228794
-0.5341008252652966
0.9422871562607136
1.8169495693716642
1.6695906200975954
0.9526638323769067
0.2278041137981105
-0.20345972746392874
-0.2958278048283196
-0.23602835204446942
-0.32798602653729064
-0.5754330043006939
-0.9218290007578129
-1.2382961873006892
-1.5321279200545832
-1.6736686141580104
-1.1104754622284676
0.25372185647491796
1.5940414880522529
1.8088374365011286
1.2622818026374656
0.6178420312061319
0.0058393269367385
-0.24179041491241926
-0.23161533106010684
-0.21255949927154574
-0.4204412955025163
-0.7794939066702605
-1.0777963592852877
-1.343012258088396
-1.520787261869382
-1.6232516902117906
-1.2720889774620547
-0.18559296955080212
1.0889770657515105
1.6092404583596323
1.2924065007255727
0.653169543720475
0.09067089102537243
-0.21492320603805046
-0.26459420707169956
-0.23955254708240306
-0.3404184118548717
-0.6008513718076027
-0.9190536586383752
-1.2123747139028562
-1.4847298758025445
-1.5652839243581411
-1.0709634161414834
0.1408623854119222
1.2286645373622835
1.3909796729784871
0.913402673911571
0.25056837117575337
-0.2775750918878262
-0.47193075967301623
-0.39753990811929585
-0.31658243583004747
-0.4200031673831552
-0.7056295953038584
-1.0771945127508806
-1.3281487599644428
-1.0394477675795524
-0.07769853682059635
1.144384004753859
1.529015966352958
1.0990633262495013
0.3915881739183431
-0.15768230349439627
-0.37549735257063416
-0.3133729705432666
-0.21750085032945907
-0.34624565670641316
-0.624402544400193
-0.929744240846872
-1.220197560636061
-0.8678591863968272
0.41254522099983126
1.4902009412389408
1.6597717216099963
1.065799697863758
0.26065029491979086
-0.22534520822754892
-0.3839895722676739
-0.2831614491366585
-0.2636731219722587
-0.4481414512456526
-0.7350657714647864
-1.0904058089445805
-1.2517715140485963
-0.7034245524262728
0.6624902784993281
1.7362237218761967
1.839126884114393
1.2714903618937001
0.5488309207047956
0.034849422177874206
-0.16783799340786942
-0.14828951448318178
-0.15682852762836455
-0.3184261787286993
-0.626615464094708
-0.9678534206847718
-1.2755269902144601
-1.374635590587023
-0.8201175596451113
0.5030791741395726
1.6830835617238302
1.9602696520297478
1.4528367441353685
0.7663931288473986
0.1883427646418121
-0.09253588165651233
-0.09757376710983899
-0.11870690582034535
-0.311617300602121
-0.6131512807140778
-0.9383725131151829
-1.2727318562780907
-1.5415903034826488
-1.44671203070971
-0.6454082925539577
0.8224315585547366
1.8118078014933905
1.7467007969168444
1.131044713343952
0.4073529469034558
-0.055796616637036084
-0.1683127444115751
-0.10262372129060061
-0.05979665872235839
-0.21482766537002979
-0.5224882668243427
-0.8513953078109543
-1.1438142774805073
-1.2508953950747825
-0.6154440839239835
0.7381273079624235
1.8215205918266282
1.9013367244005448
1.3185848117344898
0.5488023488637861
-0.07737857184529989
-0.2581166608939189
-0.17410058807134882
-0.12456232034575715
-0.33643501580524615
-0.6163776334450523
-0.990219291076129
-1.3462795370612317
-1.4594892138025664
-0.6730545037445964
0.7900039691145536
1.8623252892312705
1.880546443574894
1.2754646373114027
0.4698757464009967
-0.0169710317286927
-0.1762938894578908
-0.14005910716487593
-0.14457707893379768
-0.38311171893935325
-0.7283164069710504
-1.085342415729514
-1.3959230301716992
-1.5351863615721615
-1.203178945465922
0.0328760323338077
1.54632314563024
2.078139440717914
1.6606377011709634
0.9492806205280606
0.2939644108106324
-0.05438999156284727
-0.08366200816124934
-0.011225203841753819
-0.12404603655937395
-0.4263308883988762
-0.7686677392883963
-1.1089678723741379
-1.355522989717969
-1.2137319067988246
-0.28871488037865767
1.1023841998610884
1.9651510305651683
1.8328224808470819
1.1975400007853918
0.4840308478926675
0.040121631905222846
-0.023262842688895734
0.04348425719570706
0.001014689717314013
-0.2517092905934411
-0.599035336818756
-0.9576234935099576
-1.2347664780459795
-0.9132145819766089
0.11106068496141375
1.4851323791600888
2.0871793268307863
1.7431542117909564
1.0133255611115528
0.3327918121530323
0.003961542698774023
-0.010164408439616572
0.013658375260203259
-0.08116047089324355
-0.41119714242176153
-0.768873093271679
-1.1324621729834234
-1.3865493886645905
-1.0283346040755048
0.19569280638238917
1.6907314149733517
2.2726909455786375
1.9331695157752589
1.203270896021406
0.5074260659035822
0.06366681273724317
0.017297938171181193
0.0165599089999999
-0.042327021653852714
-0.35653731749797246
-0.7094072101143989
-1.1247707967779363
-1.4301293386706253
-1.5527253281425077
-0.7109012869362538
0.7712526974121268
2.1472130551105613
2.1624612550440045
1.5366442593014449
0.8333242744949771
0.23874745660255292
0.02977416186086944
0.11573680043494292
0.1142580118525918
-0.10568137869244484
-0.4710213470574448
-0.8119671251590741
-1.1524724599470393
-1.156772697011451
-0.3991235627526319
0.8179718166712178
1.8334507366221575
1.9843647960111208
1.3999852882187054
0.7101680668034442
0.20477220011768946
0.08376190519228804
0.1242134708128048
0.06830004636552986
-0.1490099614099226
-0.4896075766451756
-0.8367901413244794
-1.035115917384233
-0.6741854609085605
0.4684746850005206
1.6932210536482397
2.1780162309465654
1.837077512069996
1.1243662483449326
0.46267984493227643
0.14317912430199903
0.12110755786371902
0.10983484970351262
-0.07157511622588388
-0.37144978344700363
-0.692582951496048
-0.9858178707088708
-1.1134337851808864
-0.5961558775341479
0.6616141238930054
1.857186793445984
2.254809978415771
1.89897606645099
1.2348774374963294
0.5984863239633118
0.2436376633341379
0.16143339262612488
0.0805330586261942
-0.15222762501742948
-0.48327209134495563
-0.8367029441184163
-1.1462234361450245
-1.363778070249158
-1.468142680727975
-1.048937717329124
0.23772552841211336
1.63232093331316
2.139298229790401
1.8465874971592424
1.2824392416053016
0.6015772625030281
0.1853601798604122
0.13731227568432042
0.12264491598857014
-0.04818395654545807
-0.4142767640079873
-0.7763004093340239
-1.0573994552181112
-1.2519527796117047
-1.4158669714425876
-1.431046697593575
-0.7534748895637018
0.5536197858821782
1.6700935988748498
1.8739940300110605
1.4136069909073004
0.7641683919870774
0.22556882157581132
0.0449933402126623
0.0165599089999999
-0.05160235188029627
-0.3286325667887734
-0.6853419011794736
-0.9544111800793029
-1.1919674810455347
-1.3761484427370003
-1.4529139185092406
-1.0497372066141604
0.005901394551384609
1.1501557753693845
1.6494100611231586
1.391007608281877
0.8341377826593656
0.3034478318150049
-0.01790522662159677
-0.11727761748595543
-0.14784138207385727
-0.2950015054523705
-0.6036524181926374
-0.9478231915871186
-1.2234571903661944
-1.398665417960248
-1.5246788861680418
-1.6290665287539774
-1.5254060140171803
-0.8281988332722829
0.43183069757519027
1.4380870412054454
1.569040600094873
1.0925578955233426
0.49480437434753854
0.03389356811176017
-0.16046889611627135
-0.1529109604783646
-0.16198232903633905
-0.3470167644902562
-0.6866683392188253
-1.0189225771914612
-1.25266989298891
-1.4156193544759985
-1.507019729529951
-1.326390709625806
-0.5681154947359102
0.6830214492675701
1.5554965626861739
1.5437986626325897
1.0333938354777001
0.40380229019342556
-0.031303326901837514
-0.1554840105766567
-0.091468749072757
-0.10744644947932769
-0.37070850914849945
-0.666054602824061
-0.9817195320948795
-1.2517451356541995
-1.4254487629384374
-1.0692179488950253
0.010094768166124202
1.260134917754812
1.7781405766034064
1.5251105819305966
0.8849932775945981
0.23112668599308228
-0.11930081376818956
-0.20807907622602773
-0.13700457941820854
-0.2587877078705231
-0.5606377770097521
-0.892766277753853
-1.1673572797288918
-1.4443860493729979
-1.5899529476719332
-1.14886760548303
0.30385930272244693
1.5889239675582083
1.9335263229726576
1.4965082894562238
0.7948252416757186
0.22744961044375098
-0.13097513413320966
-0.18169709058508388
-0.17882983004888722
-0.33967713217279516
-0.6011292925045234
-0.9444853820828096
-1.3101683715503822
-1.5596872213244057
-1.6685437991214902
-1.5521785402974333
-0.5472436961761278
0.8951272299900797
1.7872886998521593
1.5994617545426657
0.9507129682072132
0.2827511554667401
-0.08377024945735748
-0.2346906143318815
-0.2068312
-0.25150477668746357
-0.48431537290373916
-0.8465993191354901
-1.1675029632093683
-1.4568806751334977
-1.6682965696122576
-1.5629323553615708
-0.7694789094576061
0.615846727780947
1.6194172522519223
1.619133777403587
1.0672949214326166
0.3996866502927763
-0.07409778130714412
-0.24209977
-0.19529870657329898
-0.17481024296763292
-0.35315573656282584
-0.6565976500640335
-0.9860827603278359
-1.279833635110775
-1.3316533243614774
-0.6936888985025655
0.5955225064111233
1.6420913248671707
1.754480978853366
1.2756177817030696
0.5733754583257187
0.033098338564345076
-0.18069515245909007
-0.12250793908710135
-0.126223251860426
-0.3291996216008732
-0.637967553267216
-0.934702853615663
-1.247719572580752
-1.2751506826449386
-0.5636980429968049
0.9100463711785332
1.8079755015871373
1.7338478040435321
1.1866074597643572
0.5121664613107197
0.052044920913859594
-0.0670163455487909
-0.058840834917154305
-0.08782946874892371
-0.2805461729502143
-0.5988548241363061
-0.9022326340337341
-1.2024250695753822
-1.1747201280892503
-0.23543426703538284
1.125992966737244
2.0651905247414217
1.9000720799133164
1.2359866038907725
0.6311637591164413
0.16422379739485538
0.03204082922731756
0.14220954144177966
0.09914840048877391
-0.11961900297053711
-0.46727645939565354
-0.7682784494424308
-1.038937637217038
-0.9226309088462377
0.23401189760952357
1.5862113318998015
1.9996598659955267
1.6521629943846883
1.024248409435634
0.4107462970949022
0.06674404687088172
0.039186813346774735
0.06954024942788768
-0.053503861235697045
-0.30909879954611935
-0.5902212002743126
-0.8637592255485385
-1.059123088830249
-0.7920447026627795
0.2688327608166125
1.4676990081933614
1.931020929644451
1.6201254376880792
1.0249687231943667
0.4396147115658371
0.10117109262852658
0.0165599089999999
0.004222418036640047
-0.10185975377318858
-0.37006641575103894
-0.682530341756459
-0.9660245303291374
-1.183219352061429
-1.2585549988966012
-0.7776515450789578
0.3679716631200887
1.4601551063374876
1.7515370669767127
1.3632881933098986
0.7667607772296068
0.26520977982417093
0.007170595667745874
-0.02214373170770368
-0.03339718736345616
-0.21911584250497723
-0.5277278356620887
-0.82325632018458
-1.0556330148924107
-1.2433785361424523
-1.400509831677757
-1.385319257342276
-0.845495526825144
0.38780545670208355
1.4252190879643893
1.6183518840867102
1.1384311709108408
0.542553847569319
0.13047277687627304
-0.030866459756021335
-0.009976148548947433
0.030983378279681284
-0.06569277474384355
-0.33474575776898524
-0.6603449970972587
-0.9038338674251224
-1.0786593482252673
-1.1726412061185314
-0.7263455235232986
0.3334435868748706
1.3565710099035262
1.6254908462394098
1.2515369757481487
0.6395782816882659
0.10239829508410858
-0.14497667554526728
-0.15492859290242045
-0.12896976058058585
-0.27184961259440615
-0.560336314913234
-0.849843654623856
-1.0717466789041903
-1.2568552750874087
-1.3840727593267983
-1.124317911486766
-0.007600328909920684
1.263887640746372
1.8808091964901579
1.5772338993138413
0.8741858705302674
0.2632386052337224
-0.07871584145522599
-0.12089481385963999
-0.06104951005466226
-0.20224342808207685
-0.4466053898172416
-0.7182296281979355
-0.988588803307887
-1.2093006334405578
-1.4003986437485079
-1.4245681313043073
-0.7468206376595796
0.600936006857395
1.6394969796175958
1.8006747967606704
1.3396995160108325
0.6802475527754469
0.20721410237922933
0.0070774333461032304
-0.02340742567114625
-0.021291290932043475
-0.19665370262618154
-0.5097620601294819
-0.8491131244983969
-1.1245272696676378
-1.3602556669056063
-1.3270588086323265
-0.6034513070173289
0.6593312763035439
1.5140131857328185
1.5435884653477998
0.9879996917102325
0.36559877718116773
-0.013319246646565586
-0.09836371329325277
-0.06752174325217966
-0.0949356766698978
-0.24340737956122682
-0.5122775429886847
-0.8575107019063828
-1.1499415765015122
-1.2104480320715318
-0.6183400206515701
0.5926867657474281
1.548480477769559
1.6588010894827996
1.137546848530016
0.44508156156731243
-0.06265706712816768
-0.2735306552720679
-0.25986325163237955
-0.22702205179507678
-0.3977304127551442
-0.6648236417756125
-0.9319001775464102
-1.1928348937701638
-1.430318744019352
-1.092444783407514
0.10367661816740303
1.3132645259847329
1.7516865724334738
1.4193685052127836
0.7618842494249056
0.18926842295812302
-0.1235939718203639
-0.15196890863600293
-0.12920110598150708
-0.23909347463159614
-0.4773456973887541
-0.8149288970658888
-1.1345079427734976
-1.3819987555899724
-1.4483773364830383
-0.7528707501933422
0.5229692235145598
1.5551813848636
1.5526227433878785
1.074377405159729
0.4192725574438345
-0.030350343340233565
-0.2485623005741451
-0.1553273171385791
-0.15935515392394659
-0.33024345179335557
-0.604283316515519
-0.9276771115395649
-1.1458157266115723
-1.3546746626709574
-1.0489496827417455
0.19831216965026843
1.4901404627461725
1.7026695814642971
1.244968731242818
0.5558823762381605
0.03224031318937484
-0.20309766411259722
-0.1724342250402918
-0.13935669366621278
-0.2478592388669296
-0.49374735365698696
-0.7838389056688061
-1.0549147057287678
-1.2229765906490813
-0.8933509814535112
0.22669217443541534
1.4685147051928542
1.8847046916987502
1.5357616185040694
0.9044434661778442
0.36509393975295845
0.04323877913575079
-0.0073092800061478926
-0.00902658830694322
-0.14658512999557588
-0.40960781456772416
-0.7184919626242231
-1.0373360417385602
-1.2495154127577826
-1.0852720501845188
-0.16908498760936563
1.1458691863470496
1.8588278553244904
1.6883130142289176
1.0788573012159584
0.45578809032267337
0.0661341911170237
-0.042197525
-0.00863310568680381
-0.06625083384511582
-0.0073193536701648965
0.12646837255361543
0.11324652380708544
0.10002467506055324
0.08680282631402328
0.0735809775674933
0.0603591288209611
0.04713728007443113
0.03391543132790116
0.020693582581368955
0.007471733834838984
-0.005750114911691001
-0.018971963658223207
-0.032193812404753164
-0.04541566115128315
-0.25919640826481477
-0.511764828840215
-0.7841276127715777
-1.056998560395097
-1.1239466314228332
-0.5383189301246194
0.6921865629094079
1.8053542946244336
1.9804920955865757
1.5055535940855775
0.8342192766506972
0.2714221451419642
0.03326189158683074
0.05142700148365245
0.05645338836091812
-0.08615686800039467
-0.38309765351164726
-0.721358757725673
-1.0097841614070724
-1.141620323953003
-0.6446352445013215
0.6576888378076321
1.8688399698286948
2.1025904648981313
1.6261760168897275
0.930877599782888
0.3358252781017398
0.0439366876435138
0.0165599089999999
0.0008213519212803694
-0.14341348385752276
-0.4341006762211962
-0.7779601580042921
-1.1050525748627218
-1.33452483925854
-1.3977733697833252
-0.9097545715171984
0.367043676998765
1.6081447111025644
1.9610539014816266
1.578586772859717
0.9045760836409452
0.3055427130245134
0.013170104988610626
-0.04907502265859256
-0.08840649538493209
-0.24410401032844137
-0.5304117059720845
-0.8934336175423628
-1.220324765822875
-1.446052887476994
-1.5803387166043878
-1.6784329521362993
-1.6725361136432175
-1.0356129025369243
0.3023990007822145
1.5406999279638713
1.8680225882932562
1.4668614240187128
0.7347345611928936
0.14380048036800125
-0.0931077422655948
-0.05838529560102265
-0.023170740929817944
-0.16192497563061437
-0.420443687024295
-0.7585304844425877
-1.0605830059205195
-1.314326668798606
-1.4517759598299713
-0.9571234424929377
0.33170585822022214
1.505206546561759
1.724290885634157
1.2194799054479237
0.5908481123479558
-0.020064489614731562
-0.3196028820576838
-0.27055509100090863
-0.18440620243288006
-0.29374631157958997
-0.5584790475896684
-0.910167771442371
-1.2221789855808727
-1.513352913644403
-1.6021501963778115
-0.9185425043624904
0.46804900723015286
1.8568843192076376
2.0006791239834634
1.3987168109996264
0.6333009357452054
0.08067161670634956
-0.21568022835018183
-0.16747623298274938
-0.1400613381133358
-0.3034433987772346
-0.6445014319069406
-0.9992273876462755
-1.3075986858148956
-1.5254479105060417
-1.3803018139380019
-0.3346813841052229
1.1248138490791586
1.9219035345202886
1.6724584515559744
1.013644484100141
0.34449704257714586
-0.1227191998311157
-0.21724939413955996
-0.03166167400880526
-0.051645214248482785
-0.30183726214968243
-0.6567081836405779
-1.0169009639733906
