0.0217133529999999
0.0010223018964746304
-0.06113353087896423
-0.12166065774071136
-0.14456262158901617
0.08659113962583158
0.42752721601835497
0.683307857062156
0.6873874753107053
0.617155224561789
0.9965742328464322
0.7392927616885048
0.5326566208320532
0.40622780302811085
0.24534522248294482
0.03836695136624774
-0.15690403764601257
-0.3472500923022983
-0.46274685584372344
-0.5545763586194542
-0.6480488826725948
-0.724279031020921
-0.8349163244596618
-0.6284399061304375
0.06432486539257586
0.7463197555958703
0.9228292457623787
0.7781746406942324
0.5107287808146862
0.3204661953551733
0.13922509776902414
0.048878738626476737
-0.014103547745939256
-0.12305314408081074
-0.31328837636813656
-0.4890430921984237
-0.6006570194227077
-0.7414695428170961
-0.8469450451293793
-0.887217725015623
-0.9935261805020178
-1.0808173919145685
-0.8560775288801031
-0.24162419195881357
0.3819478277976548
0.5471368642122694
0.3972774256132774
0.17978319099371262
0.035785586801210995
-0.10320128981553761
-0.15540785395297796
-0.23006694015959234
-0.3697222352724113
-0.5003212025607792
-0.6611676461280106
-0.7411864492689156
-0.7833287256144252
-0.8386376167952581
-0.9173445383675076
-0.972763888918184
-0.7900445095751265
-0.21521119115652732
0.2814455567456027
0.5231636820491568
0.46291705495883084
0.028483997676650608
-0.2928386077493966
-0.5196566902262127
-0.5407242545573087
-0.6291196436607768
-0.8871219331449518
-1.1911072457158638
-1.3921440858396
-1.5214130106456314
-1.633968163150529
-1.7374263942698298
-1.7565168999999998
-1.7565168999999998
-1.7565168999999998
-1.3998867495992953
-0.23969526984424228
1.0047992444064684
1.3578617595662927
1.0791365807364146
0.6418967046425911
0.2939863428955104
0.0642689801545345
-0.05692524540648831
-0.18433265830344503
-0.4224478174107802
-0.712138312014886
-1.0167214126172337
-1.3320895877358698
-1.5606629720980891
-1.7158443346687935
-1.7427628000000002
-1.7427628000000002
-1.7427628000000002
-1.3990349383783296
-0.4545126230888501
1.0237532295716623
1.5575331231412157
1.3413555747357881
0.977533741325499
0.6527276143879234
0.4116926410658146
0.30093815832601467
0.23815700309970192
0.07299004423657263
-0.16645998348241098
-0.46917769983704094
-0.6887778329331443
-0.8299457302713167
-0.9220169497141664
-1.032254215813107
-1.2148638131188492
-1.335076224593726
-0.804690412952493
0.5138917988666981
1.8315348490429444
2.1848805059018472
1.93982490692319
1.5591353396286032
1.2535134616496428
1.0703907450719865
0.9758767227499116
0.8254728908750548
0.573175030400254
0.29120106892442876
0.03872756452062498
-0.16445596137952898
-0.34073140980104943
-0.5266241431360851
-0.7342953125044964
-0.9359372425172118
-0.5587641100989578
0.6970149731815618
1.9828358642536899
2.4791915283472794
2.3525966636816658
2.03334358442185
1.661195953697909
1.3394562890544612
1.1673975422511744
0.9795040360657985
0.6563135491130243
0.3000472413972617
-0.02698787173500128
-0.3052462649724493
-0.5279837547226418
-0.6976180813544397
-0.8600739811802375
-0.9853669783345634
-0.6245502558907596
0.527642925808754
1.7055071863889613
2.157918115314507
2.0002345462595974
1.639659344503314
1.2802622418013798
1.0520958284607107
0.9191106623348927
0.757925351365651
0.4745016013360992
0.12041903345139415
-0.22790657386784846
-0.5296467123804769
-0.8111545865056552
-1.0332321317086393
-1.2386307791540072
-1.3305858833952426
-0.686109989226619
0.6521803297083539
1.8495029536533856
2.154932210649286
1.979032182830009
1.6142268958739696
1.225266766756519
0.9498452199984843
0.7829303701881661
0.6115829041296833
0.3092408261137237
-0.008591784075231812
-0.33799174743587584
-0.5908304552858373
-0.8268828520411688
-1.0468118018605506
-1.245940774240243
-1.2704058615853495
-0.5628735761787204
0.7778873468852334
1.7287049086973094
1.9374382656925566
1.7119964828220307
1.4053071646356785
1.0992265537375758
0.9017474820430167
0.7432678132141848
0.5168274870586936
0.17774109856074627
-0.1051933731992404
-0.352808532311889
-0.5386651973166592
-0.6946689687316553
-0.8836474086856068
-1.0628954196118938
-0.7767751136541909
0.17065383130620948
1.306259153515557
1.8324626426141857
1.796485850525145
1.5241357252942414
1.2196260215231796
0.9390849714837423
0.7576115319825973
0.5033343483119126
0.15280672968197084
-0.1950971343600989
-0.537938831382634
-0.800316342786185
-1.0485960879178686
-1.2680290157831282
-1.4901241712344024
-1.6651334338561614
-1.2523563944132565
-0.12293291747608914
1.062010459921132
1.5283194202757855
1.4062890520706173
1.1015924642091002
0.761502953824539
0.4765457514798276
0.28591483321770617
0.11264691350754266
-0.15383275688882836
-0.49349953856213236
-0.8440895182840471
-1.0907718325287703
-1.2908389869933081
-1.4305613450862542
-1.594901810385155
-1.699175296726907
-1.2778533503054266
0.06289153342634357
1.3291465812372214
1.6483106345319236
1.4625513595017527
1.141824387353308
0.7989716776309888
0.5584131575557968
0.38724395862053657
0.20105597274000128
-0.08820087857817707
-0.4137867077899176
-0.7117196468299922
-0.9365839270382017
-1.1596079122289298
-1.3802405081192557
-1.6045571015207374
-1.7166129464180766
-1.2359310156521275
0.294148999737037
1.6667398568138938
2.0591199558495887
1.8984314094658419
1.5571736449218858
1.1412759929744996
0.8203473365942098
0.603117551153591
0.38538960421545587
0.06896157940390552
-0.28549319273643536
-0.6137753747686407
-0.9333527369820631
-1.1867902580717433
-1.421058648915201
-1.6224808287511931
-1.7182651816281531
-1.5339374236864685
-0.6110639282170982
0.9599900499284573
1.8990351285893894
1.9952967787720794
1.733889656774375
1.3553382753984036
1.0023815042125868
0.7518888011556537
0.5624797396877251
0.29425042445703464
-0.04406142945164454
-0.3884227170615412
-0.7230289280300819
-0.978496107674853
-1.159181506079829
-1.3574638090534061
-1.5814035456786384
-1.4015996694367128
-0.4633893031567199
0.9911724460475304
1.7563675675505745
1.7431361427864862
1.4058200157915497
1.0432835720019293
0.7222692382901468
0.5286492383141335
0.3505201220778372
0.08619656863678302
-0.27577493286465743
-0.6062496390089316
-0.9392470870304876
-1.2107976213944975
-1.3927179474731284
-1.5960762983277208
-1.7177249557948955
-1.7335933
-1.4916984418950239
-0.33283079277163985
1.1637745339038592
1.7534175420039224
1.6230218248185553
1.2716277487084873
0.8785542766553674
0.5355559661618274
0.3149147988555173
0.14306323076936006
-0.09373045647968291
-0.4209973701286138
-0.7636168472894829
-1.0868816167297863
-1.2687267378518412
-1.395275120375978
-1.569287007021603
-1.7423993659107693
-1.3626640848781908
-0.09010255480432572
1.2260026425607535
1.679589314783873
1.4853856904454255
1.1107883643778023
0.7087103578715186
0.4667640221226768
0.3610341621828153
0.22091960287472598
-0.02564799513944191
-0.3477248202517093
-0.6545696684007151
-0.9114208085871098
-1.142299137936169
-1.366805047051282
-1.5621165882559584
-1.7044502761990927
-1.5110149523671723
-0.2312903071748582
1.5326743483072314
2.364997729931087
2.3389629337929265
1.5875739186941984
0.8374699749700532
0.6031321497286415
0.46610983460124766
0.34276165918498586
0.2063771312302617
0.02986663898923045
-0.12776738090340628
-0.3079182249082373
-0.4663890015941997
-0.5969136110318322
-0.7117804266793253
-0.8285568648030168
-0.8171431028395166
-0.2511019552795113
0.5529788756118258
1.0454829382959399
1.0630805946449202
0.9337959046376113
0.7177842686692482
0.5682276788536159
0.47439578434211793
0.4297582573919824
0.29134545710325316
0.07432429020581974
-0.08229097491010072
-0.25552366136679633
-0.37750284217375774
-0.5056985602337015
-0.6257918398031246
-0.613301378819877
-0.14428285445550135
0.6062097800693209
1.1200671287487711
1.164512585450225
0.9877995787900358
0.7905827389809273
0.6056333096556664
0.47191385632730964
0.3936412776100967
0.25070918651093876
0.05977583416656171
-0.14095774382257925
-0.31606838194884807
-0.491510267940771
-0.6541247859611903
-0.8101775781288421
-0.9813178550147332
-0.97711879233478
-0.3412735709314718
0.5591183553591054
1.0176767775608824
1.0544674982705997
0.9283053200351383
0.7484998817927269
0.5595276118080443
0.4023612359458362
0.30760059173465154
0.12234927504198378
-0.034848568594565976
-0.24018705665214057
-0.40266021481884434
-0.4959975182326412
-0.5894728021909703
-0.7014105897190995
-0.7352798506992967
-0.41233764442713083
0.28985595842947515
0.8155585508378533
0.9564797195555002
0.8341797000621207
0.6539629592679856
0.4654846865773168
0.3285223871323119
0.25672722913234947
0.13088205902587133
-0.021225746095341107
-0.19357661971708917
-0.3675784472860465
-0.49844314032430764
-0.6107109292381097
-0.7291171244540988
-0.790178906961092
-0.6727175568146347
-0.0494113064442248
0.6871078950484062
1.1075701119001902
1.0937745795347549
0.9662248639330753
0.79057133180918
0.5779424642607831
0.42103501999631776
0.2687982095733489
0.10134393412954606
-0.06972915462297453
-0.29725590261600865
-0.4848023182258293
-0.600249046408124
-0.7144380688387175
-0.8286270912693207
-0.9502242427448724
-0.916505218132637
-0.419004610427641
0.35183602321328683
0.7778520688092968
0.867840615222491
0.7759535728945498
0.6252906227895607
0.4656952851323565
0.33509978148757547
0.2546124162830384
0.0788416727151893
-0.07826799916054446
-0.25274778247259655
-0.3867515950317735
-0.4654853873934349
-0.5850987170241156
-0.6158095499300668
-0.34402269499876925
0.15756551896257365
0.575900096245794
0.6677081083361299
0.574966525989567
0.4079515571223059
0.26550984027009383
0.16748655126540113
0.06764686194298579
-0.025004795460758934
-0.21271839602713957
-0.3865123072845349
-0.5356654071447509
-0.647952283243265
-0.7091607749604939
-0.788268040194845
-0.7756854500477567
-0.40916519316863387
0.1648920440909416
0.5130966765922518
0.5512522243989717
0.44500539852311816
0.2835665772209658
0.11607411745753574
0.0222665416370615
-0.010875376982964322
-0.12464404175660579
-0.29543828645311
-0.4454156122560377
-0.5662214371744634
-0.6807252245544879
-0.7698865214344691
-0.8696237628615224
-0.9337981335140276
-0.8901037110840273
-0.4314544739784483
0.10712505672360134
0.4251233089740652
0.6611594606727956
0.6069572351420429
0.325303682138164
0.0663791196835562
-0.04231151250106397
-0.1285144157693714
-0.3258689850965165
-0.5754279710539014
-0.8770406773092615
-1.0768415122404589
-1.204600474584213
-1.272319863586183
-1.386325478617462
-1.4628708190142294
-0.9846235444312527
-0.006957247894973949
0.8361488846262499
0.9639650664558815
0.7834848592824704
0.47072429063114274
0.2114176910178603
0.10487763939235002
0.04277713857296704
-0.12811410105502558
-0.4515755660291901
-0.7166981284882831
-0.9544763126241751
-1.076247533695482
-1.1934679472416678
-1.3213050127996606
-1.4694835621471578
-1.3185285645809564
-0.449690844459397
0.7688373856952784
1.4469718382089338
1.439334666264244
1.2127630001355834
0.9714268264647766
0.6615685625457676
0.4375675265712188
0.28259130247490705
0.08213645188057189
-0.10848290579566872
-0.3941514193106697
-0.6607910005348463
-0.8594879147659311
-1.0388629902649826
-1.1835005729407293
-1.3009325609981586
-1.421484983271948
-1.14567765127043
-0.07195803648547594
1.174799419892754
1.5452217636951193
1.42013179324978
1.1712950724896525
0.8924237235376452
0.6145721671106402
0.47765794389111565
0.3215102103871398
0.08728317403379784
-0.1614644115625068
-0.38637692788901
-0.5585584532149297
-0.7113616747962531
-0.900076762281908
-1.075246542613956
-1.2301925962578764
-0.9588496439721503
0.011527064911912133
1.0834922265460813
1.4922481278247717
1.3861043381367817
1.1051608745248434
0.7550856556322421
0.43173704935402885
0.2469752512516899
0.05829242292676429
-0.21730454569420524
-0.5337129627988781
-0.7915237291214317
-0.9536598558162981
-1.1590605231630693
-1.3292585720376797
-1.5002791282169832
-1.6609367557757166
-1.7737090668728057
-1.3466768028072893
-0.15713984635540124
1.0761016435523345
1.4469711292255394
1.2840702369096229
1.0157377636650593
0.6991071524727339
0.4608859278900822
0.3251682553369949
0.16464030304668392
-0.04743520850244379
-0.3264066631008724
-0.5322651477724408
-0.7076287375189813
-0.8701717120611356
-1.0129226874589883
-1.1499951267170097
-1.3481431447459091
-1.3858050212806012
-0.6489497792466424
0.6160809528098063
1.647559276100966
1.8476717721067395
1.6318158202233877
1.3116222055690847
1.0224812104008487
0.8596182884698316
0.766830469745067
0.5799122163387812
0.23237752106746637
-0.07096231186675701
-0.3672128988924679
-0.6540350089941611
-0.908577721510205
-1.1089555812106184
-1.2873006917721757
-1.4581767704202382
-1.6251892516463666
-1.3247173457955435
0.01901141853182483
1.4472202990309706
2.041003255520383
1.9832260460657611
1.7525839304306365
1.478713413014339
1.1580580440324117
0.9554868312818512
0.8026690142811352
0.5057205840934409
0.2079533401055641
-0.07972577761631841
-0.3709327795519725
-0.5633443463479201
-0.7255120316233554
-0.9242446452666536
-1.1225017767873506
-1.2712137703177984
-0.5853430422238358
0.7854958094396213
1.8689421309843834
2.1792020464211914
2.053484003608712
1.7314555622698498
1.4105226035326692
1.1328311142781005
0.9810210093442622
0.7512155098957586
0.39580693774660913
0.0030074536006978736
-0.37331073370233697
-0.6362172685123664
-0.9099742815969141
-1.1373894026152391
-1.3514447005782921
-1.5956350210753834
-1.719953419484932
-1.5145290711152353
-0.4927930834330402
1.151638510279998
2.0600296324407634
2.190648600095071
2.070576743521374
1.8634104138391911
0.8755688697513886
0.60831988728014
0.4787698583621001
0.32184707449799477
0.13142581625761943
0.0037850208412572306
-0.1399842449420943
-0.2884299703737918
-0.4060957322832519
-0.5133109462913515
-0.594714666829327
-0.6846913811029571
-0.44157137957752424
0.170654409277109
0.7237790217774964
0.9282316319723645
0.8492338944899135
0.7151820503336515
0.567989521908198
0.4588418614395237
0.37459177347617745
0.24743371738596184
0.071775560248074
-0.0780035966663095
-0.2521511159399515
-0.3906285047674997
-0.5057740180701766
-0.5853818666090561
-0.6911977660756826
-0.8218615640363267
-0.877487289757259
-0.5175102696646777
0.2604141015885505
0.8326716848793916
0.9688951732391313
0.9056310732535959
0.7778141166842657
0.6012148109124154
0.46124705569462426
0.3810817011719219
0.25232337866938226
0.07940133854056955
-0.07752536123717625
-0.24825795621606356
-0.39027868523529385
-0.5056191023910075
-0.6125823011282708
-0.6919462497182154
-0.7159975370289087
-0.4824413846588605
0.11162871248677542
0.6541680834856569
0.7765374135319618
0.7078822391630875
0.542898385630754
0.39136024657776214
0.2989117539177469
0.23679071695129067
0.12226276015444612
-0.006020187587434403
-0.16461846266767252
-0.3461464423471217
-0.47021895951375237
-0.5302047130625149
-0.5977678303991899
-0.6717557781201253
-0.7043931279195279
-0.4118746378638497
0.19755103441943228
0.6651428193589921
0.7624339903197859
0.6619699692666233
0.544537981209194
0.38505230410869484
0.25879923629175644
0.14378173259813476
0.03846693407682088
-0.07665795103122136
-0.2313446203234155
-0.36473037020354154
-0.4741192348258242
-0.5673720755883488
-0.6808152416640302
-0.7482387442963213
-0.6937889133011443
-0.268889081031668
0.23642429719829405
0.558182539204789
0.8195567182176419
0.8077412534143096
0.5610485681392816
0.34357287340588405
0.2604260778830945
0.16474359023244967
-0.06109634804900202
-0.33233836649768855
-0.6610696733123111
-0.879956459655767
-1.003193259604939
-1.1476954225707856
-1.2787115307500379
-1.2762212956334336
-0.709154626414816
0.4674359363819006
1.2337627331248777
1.2923232
1.1018490712468731
0.8419761157436826
0.5148339363723082
0.27610401735773255
0.09893558630262503
-0.05087134782869304
-0.3391288444074659
-0.6641325759745994
-0.9561170585145978
-1.1676893578703444
-1.359171521013468
-1.5106441752675024
-1.6697930789428346
-1.6801034
-1.7309999464537678
-0.8502072883012717
0.37311037562587024
0.8956689569527261
0.8083033481153831
0.5475955560001399
0.3346918223468526
0.12159079415211002
-0.0070258514421434465
-0.1026311563335255
-0.2895347070717754
-0.5236902165580106
-0.7575987107460667
-0.926664469751078
-1.0571101916185253
-1.1819737432704502
-1.2887463945283206
-1.3194732035377654
-0.9613676893126725
0.1717593184303667
1.1124079205984096
1.3113998373163467
1.1115441996135995
0.8824841206353717
0.6407593724344718
0.4088351770804404
0.3348550990957048
0.21005160766834355
-0.03665956351569717
-0.323156562148517
-0.5574956712920927
-0.727669268384378
-0.9197595367244225
-1.0857352412833454
-1.219488601721348
-1.3759056156979292
-1.4949494519897102
-1.5991862625927824
-1.3063342495992623
-0.07912358753028734
1.1870786094884025
1.7225913641386397
1.6362233278542389
1.4056901171647538
1.1595600353969668
0.9108234688233859
0.756719220526587
0.6467078332718557
0.4269289234287808
0.11627614505845013
-0.15421508576947582
-0.3585315334475022
-0.4913516076146515
-0.6458710285068637
-0.832189993732795
-1.006639067997924
-1.0382686732200201
-0.44567131404788723
0.6074950373066857
1.5686297599052126
1.8002847954623227
1.6081723434547492
1.298120169726709
1.0105892170908017
0.7857994644220536
0.6389843739304819
0.42688257439262567
0.08082097652027379
-0.1887489242942871
-0.49428109720218316
-0.7344687224450829
-0.9552504268776396
-1.1106611983678347
-1.268977826663109
-1.468838139653569
-1.6002118903357698
-1.2882189260553703
-0.15436309468784581
1.1325274167670905
1.6513818049111106
1.5187455537290429
1.221055795667944
0.9110566422773205
0.5953231016492994
0.37926033248797586
0.19588815228941084
-0.040060691391984225
-0.3400285534111963
-0.6141341861379207
-0.8120356824548881
-0.9695379426358159
-1.0858575064143887
-1.200046557477615
-1.3131032718952644
-1.3198079802773133
-0.7692651904026782
0.4106451922649458
1.371776654108744
1.58783582320737
1.3892782063506899
1.1165800145420945
0.8403114214608178
0.6690969708337339
0.5674457118892442
0.3934095232757844
0.13591283388174352
-0.12429203241509264
-0.38769556933152804
-0.6253208416622761
-0.8152226795714761
-1.0041921481246738
-1.194771252413316
-1.366654887416829
-1.3418643111691895
-0.5463301224233563
0.7710152862813927
1.7925046304169794
2.023399771250349
1.8396285660562284
1.5453284552179405
1.2062710407643293
0.9380161393838571
0.7178088688943581
0.4811648217798461
0.1828735634661687
-0.1312342903108923
-0.4526077174992882
-0.7105272773978493
-0.9517611577432759
-1.1383942441923665
-1.3278601515523172
-1.5442465944819184
-1.673996002672211
-1.3833684137243156
-0.3489633529529359
1.1370383785670917
1.8107100002991623
1.7723967683643242
1.5661279793196259
1.3361131017361774
1.1011213162841187
0.8824574338844877
0.7071592207977165
0.4816886799184298
0.13176421595975923
-0.174483012491565
-0.44399258181941514
-0.6691764727029434
-0.862725490730967
-1.053055765887785
-1.1461063359641486
-0.7296766135598702
0.42748390450933427
1.6440737405914665
2.0671706917108352
1.9969086481730767
1.766960504681527
1.4804901857822677
1.1905040851327693
0.9739174569605284
0.7036952089634854
0.33642312972916444
-0.068260404450892
-0.45715855709799935
-0.7930383603297467
-1.0536593262814493
-1.244062593900098
-1.4185318875129656
-1.599023237717213
-1.624122364844058
-1.1103082185369928
0.16650479420379843
1.4190030066519652
1.8933750543689778
1.804174478914522
1.5777722566399877
1.2884991398137493
1.0006457210952053
0.7743322318905749
0.5543968826091249
0.25253345005740196
-0.0550008384206743
-0.37447882982825986
-0.6693217460978669
-0.8676876061975374
-1.0618237277754405
-1.268815569307449
-1.2593527382016207
-0.6294126913911551
0.5303817519261043
1.4451554808165255
1.6848833869933713
1.517030298081213
1.2357519402010064
0.9441140429168358
0.7038003282259626
0.5133382757874264
0.2833854515670211
-0.035976897083595666
-0.3727209386100456
-0.6959932383944685
-0.981337694273641
-1.2197897303939886
-1.431636191615032
-1.625170033569836
-1.7106697
-1.627538010068474
-1.0850435187308154
0.2091835126480387
1.3457066874996797
1.6376830868910985
1.4974492692448678
1.2564359106337308
0.9589235818256491
0.6760981680870526
0.4625012180103228
0.22219156640966706
-0.1161898282300942
-0.4548637440101033
-0.7544754652198691
-1.0094275460599869
-1.1848686971775413
-1.3413452684143636
-1.4971485751333702
-1.5905371881492842
-1.220858762803812
-0.19718218879842242
0.828389361826882
1.2495839233343746
1.1441607487712118
0.8637402030730753
0.550083733143965
0.30045886590724813
0.1485055063736257
-0.005361902736183782
-0.2516408514283581
-0.5639525772786939
-0.8638159448934011
-1.11221590374841
-1.283289376528691
-1.4269978105305026
-1.5710782851947533
-1.6909915632970773
-1.6843008570235642
-1.0970727395145263
0.12134035406461152
1.1837940626608425
1.5046918797964748
1.355732933570771
1.1282262936382756
0.8876575490099152
0.6245033846454547
0.41152272118505684
0.18153146526105374
-0.10695230678165377
-0.42596996952984184
-0.7694833408327371
-1.0700967448186445
-1.289818309092282
-1.4511007371102467
-1.6005547547751307
-1.7319431750732341
-1.7794405
-1.2327844384161524
-0.03930411485379781
0.9083231899610644
1.1890531957174184
1.090527862169997
0.886871816835377
0.6725144009693697
0.4944929031405749
0.38800547335574664
0.20071832647413695
-0.02840000192230334
-0.31479697235072474
-0.6185484228871374
-0.8439194551533501
-1.014260880555726
-1.1648059157544173
-1.3173654781493866
-1.1148251195083252
-0.25421993363894435
0.864998912144334
1.5361226822049336
1.6346547675384668
1.4776405050701444
1.2405291563283174
0.9983314965975453
0.8173174659761113
0.6265939077388301
0.31891538196689045
-0.06065984627626517
-0.44113352641087866
-0.7739881667096318
-1.0149605054894086
-1.2493924780813006
-1.4692812651593103
-1.6487335719276492
-1.7544747203016224
-1.5154512463722485
-0.5775155017993048
0.7761045791474138
1.5569232559445665
1.6997528101896051
1.580773334288749
1.3454693702182843
1.0616535149551427
0.8298408082333965
0.6477638399604122
0.35160780789011625
0.016096950042384844
-0.3003958143986251
-0.5486891677424898
-0.7724322181273873
-0.9972084094619159
-1.2016981931890713
-1.2051649942436509
-0.5575951355133714
0.5822698370378546
1.4600715405717917
1.6871494904300361
1.5148778466781303
1.2128262520796294
0.9341491870139359
0.7340010728832908
0.5652911203912668
0.32455645194127936
-0.0476291850265555
-0.454018146828451
-0.7799610949687996
-1.0161020480560945
-1.2310066682217817
-1.457449470852295
-1.6722219207815117
-1.5872143609404177
-0.7609710246898846
0.43164132318871534
1.2421866116920939
1.4297591077557286
1.2203495835203024
0.9221303782757677
0.6309941729230968
0.3769824187262719
0.16073604936950509
-0.09998197893294498
-0.42363889297782836
-0.780178211311666
-1.0753726362722156
-1.320581100475008
-1.4990762098756205
-1.6482293498388498
-1.737136790495599
-1.399438228709167
-0.4423920010789867
0.6031858852972067
1.1014945224748105
1.0538338761907733
0.7572880513431041
0.4202873451903001
0.2196068860459019
0.1509602906646425
0.07036533438827544
-0.13074030600111108
-0.4306795387280261
-0.752992588922956
-0.9841887273294451
-1.1590560297725006
-1.3075794906013787
-1.47143438075965
-1.6001622519039393
-1.2965662092309498
-0.32374158121971874
0.8853359925894466
1.5693288038088897
1.6116679072038156
1.3772516480835384
1.1058986776084239
0.8466663756153643
0.6004089975291189
0.3866558159855925
0.17765430931903226
-0.08283280456466623
-0.3842436977724569
-0.6511702461318224
-0.8361212957139164
-0.9845674868653493
-1.1443609703869617
-1.2292739
-0.8387416550296083
0.14128108886027335
1.2109908262848499
1.6866571686539036
1.5820794089317327
1.3183144888743668
1.0297631023923322
0.8218109964249448
0.7162530021385779
0.5721504999249957
0.3085409980578351
-0.031249435802883196
-0.36769196692394496
-0.643911245846574
-0.8751457719702666
-1.0693847325380308
-1.2428694803770037
-1.3968690203139575
-1.0600454440526752
0.02334922233243264
1.2810583512254952
1.9435502056913412
1.97479011121552
1.756627973904726
1.4820648985381368
1.1870745631082071
0.9284264241375331
0.6705926670816013
0.34001427311966237
-0.03002052529289323
-0.36991478377375286
-0.6348618835022883
-0.8319803789226421
-1.0070550163003673
-1.1431689948724029
-0.8263989279433153
0.18293684608519434
1.314879021984913
1.89256774134612
1.8835520584335819
1.617316364871883
1.2806143735735331
1.000977122409339
0.8350096146696953
0.6627279194151742
0.3561869681626386
-0.026327954777166068
-0.3689319653558917
-0.6527552955139002
-0.8949528218111332
-1.0996371456077088
-1.1594269547433511
-0.6194069798599389
0.5972430295858744
1.7676878394967774
2.260935517802105
2.2059162283878715
1.9670013719709913
1.629725023991854
1.303165357667301
1.054420751657625
0.7861415589686472
0.4200338753666113
-0.014038173113186836
-0.4303838834877012
-0.7478958670014118
-0.9711839297221084
-1.1948019593362231
-1.4137461008096082
-1.3416975258354855
-0.5653245486998297
0.6918003353347931
1.6390429584228607
1.9052389777334189
1.738750041058816
1.4568449148419669
1.1340321372985507
0.8717281808107912
0.6507600962079096
0.36866500058583807
0.06493732925782719
-0.2219969732570365
-0.4658864510425536
-0.6850142779916922
-0.9089812184699771
-1.1082511568106523
-1.0882366139044188
-0.4971207431771509
0.5084064602445711
1.312156403580339
1.4617351248063564
1.2773246006368122
1.0097412641989114
0.6995328951050581
0.47194380059535707
0.28691003076515975
0.009518811975262748
-0.3229761376185865
-0.6725021477284724
-0.9487363267451528
-1.1409201532301216
-1.3151413481057828
-1.4470661803048226
-1.6233323173922416
-1.6935991825415126
-1.2512826569188191
-0.10546085252433784
1.0002018635743821
1.3511260001963086
1.2302677488147957
1.019716652564617
0.7389095114597953
0.48005895798075465
0.31666098931424796
0.11381303358118644
-0.14863950770827092
-0.4510726075998647
-0.7046765731145079
-0.8961592606065327
-1.0407167253918728
-1.156980338554537
-1.228445319308081
-1.0007142141846046
-0.20255421567450088
0.7927343258526104
1.293484847501953
1.197154142112048
0.9639527829957184
0.6863570247974126
0.4859025903113175
0.3892907312845877
0.23797163954979073
-0.03838409168906529
-0.3340897484057566
-0.6348458129344756
-0.8561597662601675
-1.0340577213363387
-1.1556154414623934
-1.290097089444577
-1.4681486544725966
-1.4912986362569742
-0.884124200287837
0.24726577590787854
1.3457042460798838
1.6167939661900104
1.4741792551183621
1.262142770266288
1.0272472864656872
0.8373334150126442
0.6669957042928356
0.43736016729521016
0.14168800802734394
-0.1582279532165744
-0.406846062702708
-0.5639625929845026
-0.6593574591364006
-0.824049093982946
-0.9926216957224959
-0.873225290821056
-0.14571222439592152
0.8995329799096146
1.5222902446455981
1.5219983607311538
1.2808961288550538
0.9970760270177492
0.7650566952086053
0.6128062999826036
0.4225201686607183
0.12987926439131936
-0.18738461216411068
-0.477586237300905
-0.7128023583546086
-0.916654602014662
-1.0750037722178423
-1.2500145819976902
-1.4488184467152034
-1.628572985453977
-1.7335933
-1.6109384397998405
-0.9349619475804326
0.4530259857772466
1.3915370111201906
1.5417415685569342
1.3293642512840782
1.0839904738907262
0.8252249072558714
0.5514140272623141
0.3665981001665869
0.17509167064968412
-0.08342669952977771
-0.3920315707698356
-0.6395563605424526
-0.8198515011617666
-0.9390737778371477
-1.0731527170205815
-1.2428834791314178
-1.2730447977964174
-0.7763632871111743
0.28532963069208617
1.2550970791819496
1.5729760948156681
1.4347229390841
1.1841704326398181
0.9429894417553144
0.7531293191971086
0.6318627733952072
0.44338539634522367
0.1388661078808266
-0.16543152693184782
-0.43794096940795285
-0.6653409594441534
-0.8660725341831311
-1.0385964491391855
-1.2023517889403226
-1.3634114514753939
-1.37976827557507
-0.7682567177686772
0.4682284190639807
1.452492283442941
1.6977177119880067
1.5919104111331999
1.4086801946673317
1.1738468956236583
0.9278812402683826
0.6978878251131423
0.468678152061532
0.1946246162244805
-0.15435046985906833
-0.4776185887382427
-0.6929029499193787
-0.8433341804507599
-0.9964232493759253
-1.1747675178323007
-1.329564950309748
-1.192571417192413
-0.35561968857108806
0.8621336975267373
1.6608862134058413
1.8015669985667326
1.6242702142912655
1.3768747716120848
1.1290706255729361
0.9404920096359953
0.7610585964781595
0.4825461748683118
0.12166982377413765
-0.2024696196194548
-0.49709186186587156
-0.7287057111795693
-0.9059812206121785
-1.1015360590948227
-1.2352905420403681
-0.9284756073009283
0.08286824337854315
1.2573550152387782
1.8400415543139415
1.837664911058674
1.6245899855324328
1.3041064699511338
0.9373706408784143
0.6296260648124421
0.3639929637293512
0.08649471556694237
-0.19873030566296912
-0.5364363927765183
-0.872825389305721
-1.1157207092707095
-1.2767128583786498
-1.437090658030516
-1.6060418223279156
-1.7068497644717895
-1.3130281720020993
-0.26754490697710787
0.9318526893262169
1.572168431916015
1.6045463695668192
1.410532315995331
1.1640085225881251
0.9260160839697049
0.753676578007175
0.5729145486977154
0.2895129588836435
-0.026052940104345584
-0.338353263673988
-0.6065462677388088
-0.7934223942418842
-0.9517363576099717
-1.14147049686483
-1.2274801725303879
-0.7866996155112087
0.28431885245366567
1.3829363160812242
1.9471118669483785
1.9801729005307975
1.8356365866695603
