0.11670019
-0.01757894181202764
-0.22556375269528348
-0.45518707496192057
-0.6613626564433247
-0.8148851300232538
-0.9486332609691193
-1.0196001903498728
-1.0860872773818016
-1.1783975649420062
-1.1364776610103615
-0.3953228775696728
0.8686889589123681
2.028560365809848
2.14303324631287
1.7159632254424635
1.2219830236842517
0.8543634619221918
0.6941777096811643
0.6006189858385295
0.4382216877944994
0.18387829111456866
-0.11885501352946597
-0.41376094122231305
-0.6287728022822976
-0.7796896966031243
-0.8835233313602717
-0.9860819874060162
-1.0718185980181731
-1.1324004440643884
-1.134291553001116
-0.49543501579738997
0.8404463599467081
1.9060841800578823
1.999914581498898
1.5097455165029183
0.9442748683915867
0.5254187063171184
0.3438095799109764
0.2712678314441121
0.10162535037152391
-0.15261620863015296
-0.45838350849373094
-0.7249653078386815
-0.9192158287236554
-1.1010955068417756
-1.227720228249607
-1.3336464859781216
-1.4360118234644785
-1.5128719311117311
-1.3902315689373868
-0.5881132495406081
0.6763635277797594
1.6391114208826287
1.6562500666415916
1.2063228214403536
0.6354176756598898
0.262422958348926
0.07870301082657273
0.00621619345506059
-0.10772545955690799
-0.34371239008493853
-0.6200818815546092
-0.8537075555578938
-1.0782069482556782
-1.2495892667965056
-1.3453570066269505
-1.4329423316365093
-1.4938550719523553
-1.5651554492464141
-1.6363868515070659
-1.5462728244297668
-0.7224205147202032
0.669688117604715
1.767581059478004
1.824222518970974
1.3814985757330867
0.7833772191442542
0.3793441725062001
0.26383148002410417
0.2483501456121675
0.1391390570687685
-0.06881979611732411
-0.3011187920671632
-0.590881803276305
-0.8080711994400278
-0.9549036048921548
-1.086111345107427
-1.1727214961375212
-1.2602760234819201
-1.3269882126066022
-1.342950743586304
-0.7823563926914123
0.6938841008835176
2.0910837663061392
2.393914619361845
1.9665548801446033
1.3614940075314952
0.813004713309335
0.5655937267596758
0.44773628653790043
0.3070134281836883
0.07008341007297227
-0.1788313434020403
-0.455754268486538
-0.7309240019182782
-0.9293944881354332
-1.0948847861728794
-1.1839866923311877
-1.2764944954332582
-1.3610728953913613
-1.3836504796800801
-0.8442955151900071
0.7598358915749422
2.119831198371033
2.4218182451162344
2.001666862390788
1.2648784336311913
0.7094201390696728
0.4677572649014624
0.4156564839024338
0.3157452633279819
0.1026655247180579
-0.10378907805775986
-0.3565992945115952
-0.5854619771768876
-0.766681238703096
-0.853584069250069
-0.8942198707402048
-0.4886242554334187
0.57099306223138
2.0391871340224386
2.6411483476725146
2.3002836351866254
1.6229849259190976
1.017949461895328
0.6850287294335893
0.5880250315701113
0.46729252551015754
0.24615308443553308
-0.04376409550913363
-0.37367494483685026
-0.6441804878652165
-0.8559798471210013
-0.9880800054563759
-0.5921793816029042
0.6769157590937801
2.2347142717491475
2.8085068712327588
2.4390653661081325
1.7374810648382568
1.0601841474790024
0.7043608655094951
0.5717196514933806
0.4059529776720882
0.133269662074615
-0.18273342869610648
-0.5095779331935866
-0.8128473537024405
-1.0373157241979425
-0.8288375906034307
0.18889161310075742
1.56634698925287
2.134391778157621
1.8128401253203088
1.1157454547856989
0.45414942598417474
0.063598073742131
-0.035067608612563826
-0.18237883080213607
-0.42433801142116717
-0.7287143588078695
-0.994569023832751
-1.2202907904837024
-1.3760854633827604
-1.0100947638974844
-2.689505897435218e-06
0.9795791846080975
1.166802634751306
0.7306111899489407
0.10837147100393774
-0.35179591529244225
-0.5475756895921102
-0.6374432181290537
-0.8139452910370254
-1.080427911294359
-1.357137950278876
-1.558380977567929
-1.7001390071143716
-1.8333739708482064
-1.6905423184123283
-0.9590629663786087
0.25840099782364834
0.7396887174463523
0.5185215041266849
0.08799166485137627
-0.28110176169478734
-0.5327928989848985
-0.6096016991049816
-0.728518917092843
-0.9087719805720128
-1.1234045712395515
-1.3315396376798696
-1.465923456755481
-1.5654475315792515
-1.6121313098936054
-1.5290264134826015
-0.9813552609136514
0.0650373998245175
0.6617813676598268
0.5170425505588537
0.1456410102979004
-0.18069813611121857
-0.3439191391975376
-0.318044507003414
-0.3440029132043634
-0.4773184804111127
-0.6585906330216456
-0.8004200598721996
-0.9451311724654857
-1.0414639645361983
-1.0857436447750073
-1.092868076765207
-0.6416518650740713
0.22628334948993056
0.9229418482727962
0.9276149638492969
0.5560665558620541
0.15893841576443876
-0.0398670953997461
-0.10186760790724878
-0.16370290714132316
-0.3073621328078781
-0.5055072834416975
-0.6737729763780456
-0.8404545554075258
-0.9452494859461102
-1.0309155702241872
-1.0395342
-1.0394674281660603
-0.9778870766687187
-0.4942294313728447
0.47677696375152984
1.0585184293797802
0.928603766828266
0.5312600246168097
0.2187512906159557
0.003588182793739729
-0.07994850997066463
-0.1563753929851904
-0.29042977904290423
-0.46812985917390426
-0.6466054184515854
-0.7903959286577639
-0.884109196910091
-0.9648648689631414
-1.0288887003783165
-1.091790934656426
-1.1577417418713056
-1.1780371962404974
-0.935577326928593
-0.12391720177630165
0.9450598378197778
1.2648550527539124
0.9953356832336843
0.6361630841829223
0.3521167112608657
0.22672916480018623
0.21026357083500727
0.136607752409328
0.00404061582836002
-0.1904895552379004
-0.3840382623776719
-0.5383643126626885
-0.6445527720632537
-0.7469771624882069
-0.8191478182830638
-0.9096683221867774
-0.9833443751965181
-1.008580777639004
-0.6204446853244097
0.38236332266668227
1.3965308691464338
1.690873670783816
1.4162953573904298
1.0220406016279044
0.7229670342891429
0.5117617590224308
0.4305861432526068
0.3129490375298089
0.1042963411936974
-0.12279011656232322
-0.35955291769785774
-0.5693399636980978
-0.7216718401432863
-0.7842504908224978
-0.8676339017981177
-0.9747238214654054
-1.0733428850309557
-1.163904446379984
-1.138967781833688
-0.5922237809505237
0.5468556874488507
1.6837396278560481
1.8958842223135763
1.5602335913911194
1.0584081599595916
0.6786783740404061
0.5393231248498824
0.5058357870179507
0.3846360653219255
0.17948197338746863
-0.04669069966370679
-0.24120946126051476
-0.43867143935028097
-0.5887264839868426
-0.7209151729917542
-0.8507072117624014
-0.9804992513303431
-1.1011923863241324
-1.0879294570371139
-0.5136301821382042
0.7198663078855309
1.9334939717724628
2.140442027845062
1.7314936278626234
1.2103971621394518
0.7920665918584081
0.5569451398470372
0.46514811422179897
0.29445417720829026
0.049466463329184
-0.20678368524370994
-0.4978381634091108
-0.7168636947433742
-0.9126850319006252
-1.0508214082945617
-1.1731345875607253
-1.25400956923051
-1.330656180740687
-1.3061025816023055
-0.8369390324513579
0.455239020295514
1.7138781456578853
2.333179463865003
1.943068679394677
1.33864028657239
0.7782156040321403
0.5421491595836135
0.5205610170335693
0.41720959342512653
0.21108470226180814
-0.05632968892334229
-0.2991037412586129
-0.5573178614732807
-0.75403055818143
-0.8752849874235633
-0.9446956877156829
-1.0310795590463082
-1.0916664724306806
-0.6586260543548814
0.6860526166720256
2.1241811548689054
2.4898330100989807
2.038570085465798
1.424122525205139
0.8011207243667631
0.46951484749227856
0.32544090949995685
0.17446676948557416
-0.04849857843907282
-0.3630018774028953
-0.6345178664641482
-0.8946258045090857
-1.0791570982456211
-1.2042446860499343
-1.3014148788051267
-1.3488264840239066
-0.9065758768202632
0.36195809903626974
1.870737140663955
2.337707770220362
1.8770548599410342
1.1560172266532711
0.5861863203258382
0.306675657369715
0.26589098022096047
0.17694667439986866
0.006706691979359247
-0.23932117367255623
-0.4995493284427749
-0.7659854881483481
-0.9624769966229028
-1.0736664317264704
-1.0751387217086685
-0.3763778272215673
1.0341391273035154
2.0910329361930957
2.130835669394019
1.5424580870784337
0.8229796310908946
0.30874845295959663
0.06153940974791819
-0.007821191747839566
-0.1287946807971982
-0.4198300185659411
-0.7229143632761056
-0.9879026903451673
-1.2099031130566669
-1.3515167065252247
-1.4293310994745076
-1.2372401365976822
-0.12782319700928246
1.382553277463691
2.095029236162338
1.8955938999118205
1.249190410033592
0.5648315684259304
0.16658992728570682
-0.00026987536209011065
-0.06854494049190298
-0.2740293800522931
-0.5524871360111479
-0.8526021703079044
-1.1057008763798328
-1.2611108664287476
-1.3945143785474672
-1.481558348348153
-1.2954579712229832
-0.26575284750639483
1.2979796279964022
2.017293439019496
1.7548119486266138
1.1241904253693926
0.4499533040713609
0.11239364581131712
0.009233818989504358
-0.05387237549035709
-0.23839391562423723
-0.49583585924611173
-0.8212039663367682
-1.0697500749384325
-1.224412058475018
-1.3600078900803918
-1.4213245143853597
-1.2142287254018729
-0.10038084794018184
1.3486283169785538
2.064067578180841
1.821661719051136
1.2010760303679242
0.5987750321409611
0.16310778096184123
0.0008811627588185423
-0.07965011371655531
-0.2726500660972774
-0.5627592811743672
-0.8518581313581448
-1.1034565386527357
-1.2980326125862458
-1.4383241636439381
-1.5317441449182132
-1.566207605116633
-1.4890989959444976
-0.7627448483976669
0.6722849262437667
1.92094858480155
2.073301466929484
1.580094027948601
0.9424021383521046
0.41443805585373017
0.17194951865676136
0.11868098707398043
-0.009857075387942834
-0.17958051372918035
-0.4379049618650658
-0.6934769693844474
-0.8893183486998544
-1.0187889117915507
-1.099030159005543
-1.1167407690860374
-0.8174287664386212
0.2551574265323603
1.6261505352552168
2.258235806224401
1.956931808208063
1.2787935910036905
0.6636523551505245
0.2863838282853603
0.16357309041635068
0.06287781523308801
-0.13331642308942002
-0.42063350126340765
-0.7059721900220932
-0.9250321818021021
-1.1201458779118503
-1.2411675100825832
-1.274688378953225
-1.022285870654127
0.019851451048673363
1.4721453869553527
2.3569728041291604
2.22329869912818
1.523877812797204
0.84703164068029
0.4839602871981826
0.32713378368736173
0.19709419912766826
0.0030741659916260784
-0.2824683230213345
-0.6197924477382173
-0.8683303440791696
-1.1000281118852762
-1.2246375189744931
-1.1017885021970866
-0.13180199003737397
1.2535788871973859
2.0662407675381895
1.9202234014204729
1.2870780242868083
0.630250948511515
0.22403080263504824
0.12753125479086228
0.03520428472558028
-0.15510967465662368
-0.4461211959390545
-0.7163329220942108
-0.9107864936927804
-1.0812975532137405
-0.9719601819247804
-0.11308910797918345
1.0065250050386028
1.7104326104266674
1.4834952346225643
0.9059171457354878
0.3628031109620835
-0.010355665237738058
-0.16438920808238142
-0.303042096596334
-0.5406661742548791
-0.7993899517233776
-1.064818087647406
-1.3142381170073028
-1.4924371886990397
-1.5568017201632316
-1.1040282297776751
0.05350125737451661
1.183832435489325
1.403777006755938
0.9890982250923483
0.4298041689294404
-0.06793220449824655
-0.34195077657646766
-0.4357726939523822
-0.6092289354980515
-0.8521241397854469
-1.1110784813827523
-1.3514772478912156
-1.5521091142208576
-1.6553684823601305
-1.707331299985832
-1.6574356716826393
-1.007513906911369
0.19428729673247125
1.1179435004546412
1.2028518731730535
0.7108548996399239
0.17575007943429602
-0.12312346439471016
-0.2010598281720123
-0.21301933060966838
-0.31497976591061577
-0.5104731322364657
-0.714760853494435
-0.8935475919471946
-1.052590645045064
-1.1556073260232869
-1.1493524044844512
-0.6266089841104575
0.39955778989458157
1.3077812462084808
1.4339453929584598
1.0500546326218718
0.5401280773517585
0.10791618377688306
-0.09433261490199535
-0.16222501193262112
-0.26632967156498627
-0.46515981041386656
-0.7179353023612186
-0.9826659153513919
-1.198967854519752
-1.3479959485795996
-1.4593742159858811
-1.3188641506315115
-0.41042324621484705
0.7459107120985627
1.298060329207975
1.1501759956803046
0.6845247413931993
0.1875742474174497
-0.0743260080636996
-0.17897141613764123
-0.28523850179052945
-0.41227191124976537
-0.5902141417186527
-0.7832382892742735
-0.9568081098039446
-1.0882362964487464
-1.1730537841377764
-1.1032975150885116
-0.4844395668128604
0.5501346346636848
1.324844231472882
1.349835807267918
0.9610749212687606
0.43124055857738736
0.09900739414604123
-0.020166635461894865
-0.12564836245724004
-0.2768133981012669
-0.4625836351428293
-0.6792891615829547
-0.9037764247953869
-1.0617398031713436
-1.1360537310700676
-1.1825627176175004
-0.7884397024749392
0.2730242547131163
1.2802228493816108
1.631046506642897
2.797822331171399
4.298746166091317
4.541603299999999
4.541603299999999
4.541603299999999
4.541603299999999
4.50514640413731
3.8719296959385137
3.0192836835202264
2.3123130526663696
1.6993419307953779
1.1886631852724736
0.9546248298790607
1.3212850810895105
2.114374016118621
2.4140468680748914
2.113428976061506
1.5220601649726624
0.9903047535027594
0.6309891171290702
0.46488299292865193
0.35821128252542067
0.1596148945223956
-0.0693004553812204
-0.29169278042842217
-0.4924770446931036
-0.6518665123325773
-0.786780271154081
-0.6792913660156467
-0.055648854801173764
0.9828580631427057
1.5970962672573048
1.4732607793272106
1.0138409794649694
0.5413597521062328
0.2109016279833797
0.07478374155845545
-0.010946747543058563
-0.13451900702812608
-0.324039286892121
-0.5268254924054665
-0.7183311872526391
-0.9127909278838893
-1.047161698034724
-1.0569035
-0.5427301304101265
0.5773205657407277
1.3625224240856073
1.52968423803525
1.1604851727954055
0.6442999659141571
0.2573716304441603
0.09712753281036782
0.023430246340063077
-0.061281867061565486
-0.22165724020660788
-0.40202509762217276
-0.5619121777514601
-0.7094165874593038
-0.8455534990637175
-0.8731837419255589
-0.41264360035769276
0.5839165069498489
1.5402894837423589
1.7642931175938066
1.4279980588808179
0.8842856399108734
0.395339957868895
0.17424227162149933
0.11257056168594107
0.020640785162173464
-0.10640725415876917
-0.3008194288757668
-0.49170584608911583
-0.7043030582515348
-0.8536546164702895
-0.9629396263910855
-0.6393601004551777
0.3748236431987717
1.599353633795835
2.064979583344839
1.7899881158656052
1.2112997135813957
0.6621076071337938
0.32608210452527214
0.16221412795288842
0.0297296482055555
-0.0864547629875922
-0.2775650626777457
-0.4932817197640286
-0.6557896049435755
-0.7903844169892816
-0.8457853837739114
-0.49398038802319016
0.610639753169584
1.741571599939018
1.9509227825305469
1.5501339813337645
0.9434879637472832
0.4268237146308241
0.23502764401267498
0.16427705576308693
0.08605619287472693
-0.039757894948129466
-0.23163441574890647
-0.4349249478162511
-0.6387075103709309
-0.7357547148612852
-0.1956151596483401
0.9711990314791257
1.9627403394202005
2.0900756
1.6389101333870242
1.032774093918221
0.5340914264183643
0.2897031881227293
0.18460137399052695
0.060372397945544096
-0.11691199989332729
-0.3315627495400138
-0.5586888411924711
-0.6761941280282526
-0.260108141887645
0.7800328200638235
1.8185617610104154
2.0655306426631057
1.6861957060425599
1.0678255978545592
0.4860731713095975
0.18525344285519307
0.05419199136073226
-0.04965850615998352
-0.25755506850773624
-0.48349608596140575
-0.6796036087328352
-0.7556942720892473
-0.3137587012074772
0.6830803785885051
1.465012528857764
1.5333459879404798
1.0336724292530315
0.43499693811419643
0.05410959276172658
-0.12896927747164444
-0.26185160353905945
-0.42322326036523894
-0.6510902885013389
-0.8690183444113347
-1.0605197525979169
-0.8945502665165376
-0.13952146273674737
0.7395958497776788
1.06693226627225
0.7838827983642624
0.26443769744909895
-0.18055527686485368
-0.43902147576474826
-0.5380268203331531
-0.6208626271389934
-0.816027213199866
-1.0494292304535515
-1.254964527386244
-1.407267986360896
-1.1708017613301418
-0.3679960039618173
0.4296774125509887
0.6535484879927004
0.35360102448736214
-0.11600601695620189
-0.4902237403709466
-0.7170649843299135
-0.8031761990524692
-0.8878199310490207
-1.0382377551664685
-1.187635808783753
-1.3741741271002736
-1.483112166050195
-1.321707958425326
-0.5687477800868583
0.20935232671423382
0.4497712765529406
0.18974353611632078
-0.21433667398933964
-0.5502886901739308
-0.662287930495286
-0.67441301
-0.709879973629555
-0.7955030520794075
-0.8853168521260625
-0.9650135556169731
-1.0857058343178083
-0.9387689721813531
-0.3442640083652947
0.4813911816031906
0.7173056879163671
0.46247522115772066
0.0834803018239661
-0.25281169845269136
-0.4089499692004098
-0.46033343680757227
-0.5043508354897379
-0.6247351015355586
-0.8081647760881103
-0.9634982341553522
-1.1332015836169815
-1.2220955413519934
-0.8760430337964219
-0.05076309260595524
0.6239891182461266
0.698396142379013
0.37349884241120823
-0.028659694163041982
-0.3129242157785954
-0.45305430521381385
-0.5215460244264793
-0.5901614861460821
-0.75418104886589
-0.8907396601455172
-0.9966900902044862
-1.061961828541002
-1.1226336807965192
-0.9854254124947881
-0.24315082609632876
0.6177597834994888
0.9068385291911222
0.651604685854504
0.2216533749260332
-0.06706568983273811
-0.19531745074144471
-0.20497154
-0.20565009033088524
-0.31232725339464773
-0.4329415801703158
-0.5309749759844333
-0.6708173504929423
-0.746703126844448
-0.6267622585564973
0.06597393711342067
1.0123117768548908
1.5505195707149018
1.4238791923551835
1.0219008618420165
0.6023836459400266
0.3167562878310159
0.16423870199330298
0.06230726667873949
-0.03699372007377387
-0.2055910548617051
-0.39856677916727007
-0.5727935333294623
-0.6961475783413787
-0.7655494721681148
-0.71656406066691
-0.06149487186711644
1.0267428350092105
1.6829665693863263
1.6229750661292237
1.2057376839245966
0.7638366255942761
0.40806951817578446
0.13912964467246092
0.020776262065367024
-0.09269420782277493
-0.30045683589747446
-0.5360383022108527
-0.7288503653202285
-0.871057329723054
-0.9781261358800899
-1.0152063561233295
-0.9382184774150226
-0.406678498811315
0.45334965285841805
0.9265278583646311
0.732043671318617
0.12985138880209957
-0.48418976738571895
-0.8732924784326153
-1.042721746296426
-1.174886556406571
-1.3349424349196568
-1.532481194304613
-1.7163148278052134
-1.8631010887344701
-1.9807929699203357
-2.0203391648743465
-1.888464071416738
-1.2763356750256902
-0.1221975270123557
0.5242867899485358
0.49694148378832126
0.1253389740484731
-0.2532039632915101
-0.46528185763564456
-0.48480334358844374
-0.43159993718234546
-0.42091295761004943
-0.461059288369827
-0.503802236665917
-0.51793252
-0.4655800475136893
-0.09291008669938239
0.7209696910627124
1.5688566769176189
1.7393222689067476
1.32427166126186
0.6792280979238724
0.21296314377295825
-0.03180730564342102
-0.1532882963053195
-0.24139902355587828
-0.3353963953876032
-0.47367837628323656
-0.6709039255481781
-0.8263705714160229
-0.7782850448664642
-0.15678537087579145
1.0052048357575654
1.9819374240579575
2.1326685404183285
1.6959772552256571
1.0893442147704815
0.5466406393591166
0.25952928066864445
0.11555459214752634
-0.003700452290716128
-0.13581778188218568
-0.33443983505467606
-0.5152017434506979
-0.6865883522372624
-0.7543429217937349
-0.3658399811789043
0.7398738758328853
1.948764015752096
2.3572404782065903
2.0087939994930153
1.3204447280007099
0.6525375236111421
0.20328529744741342
-0.007494400198143691
-0.14498918162054258
-0.3615059589269509
-0.6247807277634598
-0.8617707281998603
-1.0546876612501137
-1.246161953167939
-1.379972738802157
-1.1770805943859317
-0.2368302343139071
0.9693495913353225
1.47710857032955
1.2096512680951823
0.5883044694294932
0.04395101400963525
-0.36928884008725665
-0.5674292075549796
-0.6382798612457928
-0.7582889546766192
-0.9333520616776853
-1.1169929647437893
-1.3099946671299612
-1.482690635951297
-1.5567923542360504
-1.5491723700423419
-1.1381954284884552
-0.12792056507470828
0.7763145398933854
0.92990646944295
0.5187639081779338
0.04637023572863454
-0.3320675861029952
-0.5016891816795835
-0.520754801941836
-0.5449085698222117
-0.611949729373476
-0.7162381959216206
-0.8284528540055711
-0.9382473550793299
-1.044539910274328
-1.089827207667271
-0.8176491408309844
0.014157528657219948
0.9399883645204019
1.135385988668433
0.7270161676386049
0.19901749965092258
-0.15997817771002765
-0.36261899422466504
-0.4053913611956246
-0.3694295211596215
-0.42521341304815663
-0.5043395947925309
-0.5848405541480246
-0.62225285
-0.6184431557721388
-0.5387104493187354
0.06768982753443312
1.0507008729621345
1.6763983423619442
1.4396596817079705
0.9354932394506882
0.4237081923433917
0.1138603708263945
-0.0012874776584141895
-0.04920963620404077
-0.131578233575812
-0.2640875472414442
-0.39013109565732207
-0.48962987524293894
-0.5978275070296031
-0.606526126758683
-0.13002685039482786
0.7805992295945594
1.3799747205150807
1.2122876237894167
0.6562376619566582
0.1775941757923669
-0.05666414329702409
-0.15110103958971802
-0.1952393621103364
-0.24443897610057627
-0.3255840499407395
-0.42305542415635
-0.517009847605614
-0.577070377733582
-0.451856749809202
0.22073457972976054
1.0768906860742253
1.4076654902479973
1.1286818915127952
0.6760595736235145
0.28020554066577436
0.04375940664978899
0.0036691109
0.011395086776789824
0.047906013848877986
0.06865144377675977
-0.009126945204460158
-0.1638313301666424
-0.3135141359622003
0.0024366049555477054
0.8673994018800866
1.6066757790118227
1.6450220497861043
1.2267065036889393
0.7285646075920085
0.34909203545500156
0.1827705132658978
0.1239370724035661
0.06349515383125151
-0.020530701891746397
-0.17414778671143702
-0.2998062590965987
-0.35464013703823943
0.0015502283103701886
0.9014418821707728
1.7829436080608747
1.8412565981177056
1.4057663519552186
0.8852643861785232
0.4542743867082223
0.2774087403924731
0.21390768657366585
0.1099162960316523
0.0030991519229395144
-0.11374857674722258
-0.28575853461951617
-0.4554563432686479
-0.1945451219999166
0.6204206418957017
1.4423766672171858
1.7236553198876776
1.3670546508049384
0.8137026051165708
0.4087801906810155
0.17923303102559884
0.08029627668809403
0.01533357174530066
-0.08061072284931071
-0.25627956312872335
-0.4191317140244371
-0.5632967581741737
-0.5560209910130611
0.01350059818626706
1.0127862087457176
1.7101771223687827
1.647239549740163
1.1566096317442116
0.6631848683710639
0.2729820579725437
0.15164670987044443
0.06260466358471298
-0.0303690868439616
-0.22971431651363922
-0.42449782792167495
-0.6058913983466953
-0.7437586780074272
-0.6574795402985348
0.14516253132778342
1.3324547265540176
1.9495296628994374
1.749402894652966
1.1051331380047478
0.5796183695148067
0.20669825539204256
0.051913920653122475
-0.023244043839562727
-0.1524048602714442
-0.365054167722936
-0.5595949468865093
-0.74863590852469
-0.9179120102857802
-1.0074032852521
-0.6109806876589805
0.3522477468268981
1.538284911474505
1.7677694522134766
1.368308334981087
0.6925828386208612
0.23901167961554884
0.01669718049455345
-0.030040790709409373
-0.11418957417835333
-0.23941562040471942
-0.4352987764770091
-0.607215715368344
-0.7487761427247457
-0.8587695965283421
-0.7700716900218891
0.06772105384654636
1.148747172051731
1.8943317355968552
1.6765093748769269
1.0509995088835316
0.48117519210598103
0.16154607038077906
0.015898711345514332
-0.03722797317361991
-0.17081087666188088
-0.3441241931353359
-0.5891895198791051
-0.8029320560065031
-0.9988869980007666
-1.1000582287428156
-0.7994297827082362
0.23759605280897525
1.4379633196941388
1.9106310178015917
1.595187005388082
0.9564678247943252
0.4685599870424746
0.21493501459868253
0.11375228296935141
0.02587535744551801
-0.1022483471202006
-0.3214779130922724
-0.5618664349322844
-0.7989070474480056
-0.9686449014240798
-1.0488737997148962
-0.7586800581690075
0.24351085982839743
1.5292089309049233
2.0555578639627883
1.7564491265451592
1.0950262616894033
0.5104052165948774
0.18902496440058808
0.08580534609488397
0.0032260342179919743
-0.07632914993577412
-0.2682638849253981
-0.4769521396801131
-0.6768133919732441
-0.8003037719966205
-0.8126430553858291
-0.2933900264182155
0.8944141253891019
1.9362809899119529
2.0653597012118454
1.6332642718093338
0.852290161332872
0.22928837269680846
0.02267926086658345
-0.02186249982252184
-0.141996785696693
-0.3141847764222159
-0.543234298664303
-0.7596189028868262
-0.9542358222928272
-1.1093567850678923
-1.1582275664364297
-0.7176614543509829
0.5607793244713102
1.9014187734095724
2.1308593831154763
1.734736727434877
1.066879416893121
0.3295689242897483
0.04448378857818532
-0.034071341368737254
-0.13729223013315475
-0.28196745486659397
-0.4567189029006173
-0.674376951438383
-0.9300955713584756
-1.1587629823393917
-1.281438839609503
-1.1959709246316368
-0.31212208840754757
1.1578186096298615
1.9788334343186653
1.8350216496316953
1.2171387869548842
0.5883085656726714
0.21597294647308501
0.08490443443836529
0.025322306800407906
-0.036541547503406484
-0.2059830917005254
-0.4167803116972266
-0.6205706235853906
-0.7905555855065609
-0.8981856324681602
-0.6798022874541325
0.23484096631999915
1.5626800803420735
2.2723198723890823
1.9196346932770294
1.2200122244330416
0.572975747510692
0.21138018232196004
0.06637017296330239
-0.0039059647192799946
-0.16177253444272582
-0.3805511954620867
-0.6679705975679547
-0.8774670438876808
-1.0288491627032963
-1.1339520151944946
-0.8314657086503248
0.25036750041278627
1.6321627332703568
2.2054420824211665
1.855876184102903
1.1129502825291755
0.46109511061389385
0.11339148827854263
-0.00728682235265872
-0.0898568376430145
-0.24418304723976617
-0.47718650698325604
-0.7183788982145565
-0.931400627290656
-1.0563185798516157
-1.0086526663234499
-0.37579238841129853
0.9705167932984102
2.002395725961424
2.026938661267473
1.4272019194616263
0.7408659784293969
0.3047365721935512
0.140085114810734
0.06752532320012009
-0.03358261387400051
-0.2467550491492224
-0.5000790081401723
-0.6941869545355295
-0.8544983856024981
-0.613555027986705
0.40651901826679593
1.5572528127289977
2.05675922003705
1.6165716695290415
0.9292105650266874
0.3451698194814757
0.04089212235007374
-0.05742489154385161
-0.20867609408163332
-0.4335661273846818
-0.7005765617186865
-0.9611787120813753
-1.152990283421834
-1.2655356671169475
-0.8792510376433998
0.2196349575519283
1.3533710869886164
1.4663842696668745
0.9979733228816048
0.4083637624251394
-0.03287961109488062
-0.25398198176382253
-0.38824844305005135
-0.5456899793216398
-0.7383278893217907
-1.0059194585546567
-1.2028755484050409
-1.370533696991125
-1.4269241766833611
-1.1701139623989418
-0.2349320229305417
0.7290688572584457
1.0154703042428135
0.621516210232654
0.10567980145304769
-0.2821173356688311
-0.4411340306927068
-0.47873685002127786
-0.5951639882760243
-0.7349484042854989
-0.9008357312175542
-1.094830017309972
-1.2588469919686207
-1.4272157493557953
-1.4631990561957917
-1.0721755568504556
-0.14371755624249238
0.690063785010357
0.842950563454006
0.5342350300192985
0.11060109659244555
-0.15347003996978092
-0.3151346797287503
-0.41466365947450246
-0.5360499311174538
-0.7237941083092204
-0.9296900660060846
-1.1054794406802766
-1.2437129243983138
-1.374802170499213
-1.4685958571448121
-1.5120231587319748
-1.509160919254043
-1.0442859376443439
-0.023066496342296475
0.7043585942363588
0.8334023587307506
0.5205516827758002
0.10400223197055575
-0.14416900866824678
-0.24962854137444457
-0.2666680570116834
-0.34655458965559605
-0.48278011396721554
-0.6475303227967628
-0.7566030207698504
-0.8295762513154628
-0.8766731571942566
-0.9242671766164113
-0.9625705809824193
-0.9025116277819721
-0.4120692897489724
0.46195917294015354
1.131685031099577
1.1092770834294237
0.7368541154032066
0.2969110978519862
0.024721065340747278
-0.04275821639751763
-0.07643380852947407
-0.20144473590750356
-0.370741458592711
-0.5420590264836119
-0.6985975756126626
-0.8114247245846502
-0.882423217451037
-0.9411244443557958
-0.9672206824747653
-0.9518267495092596
-0.6509314373201711
0.20143702519763995
1.1183624234457767
1.4584474534092673
1.2229534639169972
0.7716910103410686
0.38751455835260423
0.17491777806066122
0.06766471225429366
-0.015441636259147119
-0.1536672852845802
-0.3536774399992871
-0.5331437159497724
-0.6852396699226276
-0.8190807693793005
-0.8929357526356503
-0.9539586008774913
-1.001632026557285
-0.8520439617043576
-0.17172584169547633
0.894369406384974
1.714656645452004
1.7795265738365134
1.3476695509079353
0.8818672241823061
0.6134180396491807
0.5139661548395149
0.4540178858324946
0.32738043029208386
0.13859827189868923
-0.00848207129185588
