0.82717977
1.043103379051142
0.992627660220305
0.6801368153201349
0.38179313434105056
0.18195296526925575
0.0527167880877496
-0.08639353254062135
-0.2706930642337715
-0.49732360992920865
-0.742214329049111
-0.9578095170598386
-1.1191637676982618
-1.199284159742469
-1.174792463640989
-1.1501031000000002
-1.1807425945148282
-1.2702726884114395
-1.308364896974394
-1.0062609978995978
-0.2081007431406101
0.9112581410217083
1.67204946724175
1.9615523783339914
1.8509197174662932
1.6503516368929783
1.4394445087129106
1.1931000294368688
0.9704224687615672
0.7926879722026865
0.7452795212108845
0.686186738315326
0.5517231975363455
0.3657125447025182
0.09577443581212255
-0.10285129447838262
-0.34223980131432474
-0.5426933473433604
-0.7662453227262231
-0.8410591624691259
-0.7503627294086899
-0.21866097574620058
0.821876005225467
1.6989403863361106
2.1915655798962654
2.2707116662698246
1.9877644461664734
1.4657016859010965
1.1406334736584736
0.911606504668595
0.7562623796362076
0.631745541458656
0.42102856738046474
0.1171500904968089
-0.10030031822368449
-0.353205546546705
-0.566668884920673
-0.7264813942688482
-0.8543832628506373
-0.9808283625591644
-1.1178088298551356
-1.0276447783531144
-0.49424032406911
0.4948575484722557
1.5589765608096051
2.1043589940665197
2.205308868433727
2.0763464201809056
1.8775778163489025
1.6944871876457013
1.4856577395025377
1.406336006776056
1.221983933342679
0.8625068806699576
0.6908818968891801
0.4431080880807742
0.33042168367695096
0.2609697976638854
0.08773816236038107
-0.07187968949022128
-0.39631992631761254
-0.5231656032666236
-0.3100801544441794
0.41813142451749985
1.5276795076975331
2.636545714855422
2.9135353564885746
2.8081319009489647
2.480009465225525
2.1556821488518607
1.7880144843777186
1.5014134382503734
1.290064318099885
1.069661444563062
0.8215253654216585
0.56393792274027
0.23565447639630538
-0.11816398662734556
-0.40054529931077826
-0.6663677318647168
-0.9949041315785668
-1.2725003839163078
-1.577668433326205
-1.595274704612313
-1.018578616617608
-0.410876365978949
0.3126794141902569
0.4635172152303123
0.4289753862208276
0.32386811321302805
0.2098586695151825
0.09880647789217409
0.05434665741725474
0.06866925093573083
0.020411560115951674
-0.10264235545668972
-0.28991582607919875
-0.4874021670240093
-0.6385465674325715
-0.7557932935971087
-0.852676852374112
-0.9115518075476287
-0.9693200934463876
-1.0099227158099253
-0.7987075562459832
-0.12321157019666179
0.8584520959901877
1.7489174963154046
2.144622012740098
2.0922889100959456
1.8072309464803384
1.4793575345194245
1.208890457669895
1.004915620037369
0.9036708587379949
0.7827510970499554
0.5897157983109771
0.3864465840154132
0.18079566920936194
-0.015606010530232486
-0.2819467824468711
-0.5706947688796346
-0.7986430093659704
-1.0031487100837355
-1.164677392248222
-1.2863594580988773
-1.2667426626865503
-0.8263033040355352
-0.0011152559908061965
0.7201207089123749
1.0365508408990176
0.8503441256389342
0.46996624005836707
0.17860406236269222
-0.08520584781479601
-0.2300013448914166
-0.301213197286182
-0.3565540392094835
-0.43899155800146167
-0.5225703547081981
-0.6693946157865116
-0.754528252035641
-0.8040988733743848
-0.81114034
-0.81114034
-0.8571563145822825
-0.86763414
-0.8981999960262181
-0.8520435421436982
-0.3431889448350604
0.688656912988637
1.5939539755669516
2.273867998302289
2.201107162140082
1.9060433120026967
1.5990585340248626
1.3025601081010572
1.020027055470882
0.8281792289002277
0.6388727684264044
0.4389744045692829
0.21177168769734175
-0.06928472523511847
-0.2887607440377508
-0.516092381209889
-0.7082989565090011
-0.9033519162926066
-1.0575305878739147
-1.26065335808694
-1.3952790051805009
-1.1654525606879318
-0.39311821891284215
0.7100770260038224
1.4299806120040954
1.658294613836587
1.4741673378050726
1.1933107742314426
0.9189569832464389
0.598179026313479
0.38911268606398486
0.25012030265412233
0.18807047767234306
0.08268671427808698
-0.20708264486580558
-0.4751643924438031
-0.7454952417333083
-0.9615342232895296
-1.0669029679148374
-1.1679991079251044
-1.1971215988241033
-1.157400650392514
-0.9946996266389999
-0.4226012908929698
0.7297829814487286
1.3926190733650254
1.743593813836446
1.6261661664257203
1.417014274635493
1.1434718168971671
0.7400082872341539
0.5472176848793974
0.29129041550404744
0.14103495594488838
0.0026301928202338426
-0.2264834555340175
-0.42218110743371845
-0.7046436274479615
-0.8850811992475996
-1.0206043798668314
-1.0656517169148496
-1.1643315514475474
-1.2001822870462533
-0.9064906423829346
-0.002671065609828882
1.0506874638934571
1.7963102491311096
1.9372540551521633
1.7338549155315282
1.4213296489564602
1.0593005723660722
0.7392206819238235
0.39894501074780103
0.20851498292220388
0.026629637306088638
-0.2313759270508725
-0.5151403597088482
-0.7564276245214373
-0.888471282671552
-0.9916249166025395
-1.1166306285064505
-1.2176417758223528
-1.2348886369310748
-0.9886799646521037
-0.37682717770750507
0.5931938388282245
1.468265637110303
1.7333526204675056
1.5951276289440166
1.2614415216677097
0.8833845328773702
0.5729050414287506
0.27945425990145734
0.0986860571582104
-0.11801091817907378
-0.4248762929664367
-0.7525565847025568
-1.0375321515060476
-1.2720173075273156
-1.4912806602508677
-1.7297908348210125
-1.955915443271806
-2.089408080035
-1.9143664581476052
-1.342962200764185
-0.3776243583473285
0.46695841352952755
0.7980290568002905
0.7560417234648387
0.5487909706515339
0.2888367997348509
0.025990306956535397
-0.1669452507681802
-0.2247509616739421
-0.23247980251868985
-0.3195966189197959
-0.4771537374109447
-0.7072272143315648
-0.9736091516187759
-1.108852455796124
-1.1793286250933066
-1.2303348215624206
-1.2327495838516247
-0.997421182713561
-0.31008828766965135
0.5213496936160826
1.0929697019096232
1.2421091234194703
1.0746000287900705
0.7611526066003574
0.42685892416847215
0.21767798977517194
0.020197547866466006
-0.16571935754066688
-0.3277158937618152
-0.5002043936323596
-0.7240626186125031
-0.9552600081604588
-1.1247920731427161
-1.3265954156599313
-1.4408325835801237
-1.5574250051752667
-1.569734543881544
-1.157023758848766
-0.3154302790536745
0.6902015676017658
1.201125416727455
1.2711706624202892
1.0692720272028777
0.783162947433474
0.5856728549184047
0.3571072784856438
0.21500706071416842
0.12375002854578594
0.015559662521458378
-0.1635720050891065
-0.41475421152969216
-0.7024883175604015
-0.9357156431583398
-1.118747629239846
-1.2972458287955868
-1.4694933387288234
-1.585953468303916
-1.2567913387177239
-0.5561146271150846
0.566474475366979
1.2109291949221044
1.3119820590269262
1.107749551483337
0.8191904756552757
0.5135775467954374
0.21798455866243505
0.055239534872203525
-0.025621674083026097
-0.15320865754914
-0.2987853019321194
-0.5111748277227456
-0.6782833721357497
-0.9392366441714868
-1.1667267975187332
-1.3871421090676037
-1.4848934764673845
-1.5423428401877044
-1.5835997708545873
-1.1253358001573277
-0.2862737708872173
0.6346058570397689
1.1096488000000002
1.0814856895514675
0.7774875268214557
0.5042695648723298
0.27951596627204556
0.04759014999219332
-0.18786569792770882
-0.4060989514048244
-0.5711473377293841
-0.7372396351932805
-0.9685151288410506
-1.2103775360732423
-1.3480960824508652
-1.4300670954300807
-1.5703867341247566
-1.6673857575852389
-1.6245124924497898
-1.0906682847731022
-0.3206271926860426
0.5380230018426742
1.0931666806412388
1.1326356432797695
0.8962026556865681
0.5370007567650181
0.24254142927002936
0.02061428145443637
-0.19141881466260507
-0.36894626589741514
-0.581319453382444
-0.752990419455729
-0.9789939951126746
-1.1759627522416851
-1.383761811266021
-1.538622624621758
-1.6852212775125641
-1.7944060598972849
-1.591394635195926
-0.9888424201771843
0.06432107787624908
0.8609243705612994
1.2740481210824384
1.2113245764786236
0.9571662816990649
0.6290058482472441
0.3553433864981871
0.10105366406962125
-0.06585608085661124
-0.28162113248911647
-0.5580344001930959
-0.8770383440184163
-1.0953494996293551
-1.2766200114309838
-1.4087599046007957
-1.5675306447891812
-1.7240485616860353
-1.8345093522679592
-1.5912263561896995
-0.9037992936737144
-0.021857168508758185
0.5694934974767761
0.6475371076971884
0.43433007331899065
0.16831238817589655
-0.06624687619220639
-0.3680102382512451
-0.7081153109328574
-0.9385287328422274
-1.115289328843058
-1.2280096548357888
-1.3694392236196624
-1.5134110237045433
-1.661708637736712
-1.7981771566792064
-1.9401486498935712
-1.961606285916068
-1.6486842672256
-0.823592840079349
0.23751145005884033
0.7055397377169679
0.7719360573875643
0.5850179681298463
0.3507584594547752
0.10240973932888964
-0.08814293754568024
-0.18123728532378075
-0.2791124293127477
-0.37336596800277666
-0.5304271057339663
-0.7208143352782717
-0.9471778134625198
-1.0881856328020334
-1.2786215720018994
-1.4463612243827604
-1.351809117321912
-0.8182409775187249
0.12122079542893305
0.9980362490946625
1.2976511704618172
1.167725223056086
0.8513034315505147
0.48471630033348206
0.1875433096893298
-0.00041164726373882354
-0.16131809022244364
-0.2932467168356943
-0.45340895266866454
-0.6557023250338825
-0.8239845279097487
-1.0102403981352122
-1.1870910026081662
-1.3054765360536515
-1.355175508822619
-1.0176843186297018
-0.19824976108129988
0.8205710984093262
1.4349625981299519
1.401359519439027
1.143430021810724
0.7030444931534843
0.23598027248375364
-0.039071357614091085
-0.3762530478240408
-0.5177361651252064
-0.6510323863125695
-0.8354031070698662
-1.0325675681978106
-1.1624815001731554
-1.314935806369958
-1.5238484240784707
-1.6931647723910335
-1.625747645198572
-0.9954180363227034
-0.06082795209578723
0.7936243329699031
1.1669779858338278
1.0984778695471755
0.8373801400740425
0.5634243990091143
0.2706780970545644
-0.02687564292316086
-0.24890206887139643
-0.397110018470658
-0.5519288434359778
-0.7267415679761163
-0.925807212140423
-1.1629206986647111
-1.367763766660605
-1.473911704220718
-1.5078246706791867
-1.1537637252087563
-0.3914594993432715
0.42755004054199375
0.9855884017684055
1.0856393888442821
0.8011031798322104
0.47727764837696385
0.10169451551846193
0.06536032529013464
-0.020227185
-0.027229590824384337
-0.10137926528142369
-0.207513762129163
-0.3134323640007809
-0.421550220024822
-0.49717412138231437
-0.7026759997644363
-0.9017738050278763
-0.7677148433419569
-0.23693546906219767
0.6791444498646404
1.2052116219459215
1.2897395886270995
1.1493493362979192
0.9012010317225009
0.6575351080228071
0.2939997307713468
0.019817768931200075
-0.22777587883681166
-0.47923938813067046
-0.697064860189828
-0.9438677649251659
-1.189628649115667
-1.3991074283800708
-1.6109661410800429
-1.8186994040629645
-1.9692632
-1.7406656872472503
-0.9258118701582434
0.044251421595404905
0.699472464780768
0.7916760922836255
0.5703703256702689
0.2286470658486229
-0.20634724282720124
-0.619864401682034
-0.8892091042654908
-1.0081735228396855
-1.1230557463567563
-1.28461870756128
-1.4321057309077145
-1.5463186301529483
-1.6485170663308613
-1.7745795908165058
-1.82070157042288
-1.5107998692045341
-0.751127742932209
0.1628482123158262
0.9327578705609361
1.1726195726531954
1.0249484274239329
0.7172236813737991
0.34513017263776885
0.007708204878364572
-0.22707744084137188
-0.4012120948424988
-0.5699224279827789
-0.761032253721462
-0.9502686344912901
-1.1887441997433745
-1.4938913845197699
-1.7739111529648453
-1.900900376003828
-1.7181108760090669
-1.1539898525654244
-0.24971420460015337
0.8298576514276927
1.289634202783946
1.382592807553113
1.2331059222411664
0.9447102612540168
0.5283158622734501
0.2356247558862819
0.06312282198223651
-0.029710248819695695
-0.10901024520719277
-0.2777843362482967
-0.5104428030233072
-0.6228909542602074
-0.8680274676538374
-1.0383497446390768
-1.0115916699168568
-0.5309356374901208
0.12835220681233073
1.0988358794406896
1.4364716989973465
1.3591727066808659
1.0020287929867808
0.5758239907517836
0.14487649126637503
-0.3036163896477968
-0.4263574786788179
-0.561283174862421
-0.7487801995284417
-0.9410074830098603
-1.162329215864539
-1.3591879126343422
-1.5842267798141576
-1.8326361670381444
-1.9874293234744131
-1.7705389837836893
-0.9642457855278631
0.08959186706860867
1.0082533982519521
1.324000500977276
1.1054989149187746
0.9299427832913578
0.5565448638021306
0.1574209642909661
-0.10617068000125444
-0.3295964576787283
-0.4789271433728055
-0.6988411340381726
-0.901749424830263
-1.1497073802187119
-1.372520753948257
-1.6027992507071962
-1.6987748564135394
-1.4845495462059555
-0.9524900400372664
0.11151374588723273
0.9294515615451686
1.2474174399056654
1.11045491856236
0.7258982676070544
0.4131542968788282
0.14231834398585932
0.09605229619686782
0.07807890298065732
0.01787466315792445
-0.17009459638185478
-0.3738668619791379
-0.6498038986299142
-0.8922595935070898
-1.113320782192723
-1.2598425172342154
-1.2158447174902298
-0.42548331625779
0.40528434813597936
1.501207773405555
1.7856821572107053
1.4610330296062946
0.9714199986637736
0.4736404848555699
0.018064238219304862
-0.3039670525171502
-0.5815990138225673
-0.8402337785540294
-1.021047648800633
-1.1461339849664458
-1.286548297192414
-1.445974890434563
-1.582341657185621
-1.6152764643321778
-1.343134224282101
-0.6492871873558655
0.3803906632372749
1.1086710788467244
1.3381981626351085
1.1698103563831226
0.8714272591585154
0.5646157544676659
0.2701550831495917
0.12814095933090539
0.031646035881359454
-0.08838041108926087
-0.24329533881303536
-0.46905099242974535
-0.7042917092985878
-0.8837464206653852
-1.0359310045074577
-0.9636292970720165
-0.4707679025822921
0.4703126612523976
1.321551632274598
1.694925234502528
1.5924182805287272
1.2439396315128766
0.8248943438301657
0.3444902675138137
-0.00492321323737735
-0.22261123448133507
-0.3417809299801612
-0.43160460051908073
-0.5446154684262537
-0.7061942764904153
-0.8980201026952949
-1.0828219717979135
-1.0983510683442697
-0.6551443723147645
0.14307850254248888
1.014965935666365
1.3793083525290073
1.1271474322996267
0.7443469554086171
0.3446296864886139
-0.028427837830208462
-0.2918721994459179
-0.4655748577325823
-0.606239201421764
-0.6846680221509894
-0.7867711448812627
-0.9952154871477829
-1.2073037642353293
-1.3625364850625268
-1.2874718491610466
-0.8598125762178496
0.03626642796187102
0.7210614328501812
0.960823785748345
0.8275217976813978
0.5585733119378622
0.2640606966014214
0.1004548827663706
0.092760408
0.092760408
0.07087721001184633
0.04919928409664
-0.055893897985311976
-0.1997975048047988
-0.3762395823068413
-0.46553122648777334
-0.15233953892579333
0.5251341393216322
1.6378071119789341
2.1136731103477
1.428402930029022
1.096874083993587
0.8164532562651977
0.536032428536778
0.31847718171197725
0.1950856403942518
0.050037884534552546
-0.07865656699033183
-0.24099807281266422
-0.5014172556083307
-0.6319868893299198
-0.8525789376473205
-0.781669107221565
-0.19561713387551916
0.843148051963834
1.5996529291981645
1.936403579140865
1.7050733483854619
1.357977294813306
1.045681491483125
0.7076789583848685
0.5226147819701255
0.38118968875182113
0.27897211831467067
0.10045702034383842
-0.007937712355660848
-0.25542924360370417
-0.4176841918804795
-0.5361117124604491
-0.3667449523608507
0.43622180513891495
1.3191167348488753
1.9954339036751652
2.0462900487979927
1.6752010396872234
1.3123804262460774
0.8789096484433059
0.6223306235486696
0.4517046151449225
0.3725656224490856
0.18808287567763993
0.12171681873368004
-0.08890451580993203
-0.3310602398297606
-0.5792554485137344
-0.6001587309961657
-0.2412438372251381
0.664025148099154
1.5638101118115748
2.2793659604716563
2.334465675176749
2.0189818784027356
1.6470269548299383
1.2695486430029148
1.0088586155498502
0.6934166317058147
0.46158190636902763
0.2634450859509931
0.03919002995242393
-0.20004613135574484
-0.4563423820804151
-0.6561812942863694
-0.620821700703995
-0.14290616643995546
0.706771255395473
1.4754543724521345
1.81461513911068
1.675174531350474
1.3516104682606997
1.0397973914114094
0.7832722090660651
0.6230021936155069
0.49237429384536
0.30032412386808244
0.10661581818799616
-0.17763398296702834
-0.5828918311041674
-0.9717119605216555
-1.238036442724072
-1.0894741019878513
-0.40772823365724264
0.5706221578659963
1.3612837091221455
1.5483080869749168
1.399160704069208
1.1073633467119688
0.7694639619788399
0.3974309391314409
0.10285504261491801
-0.1475205262136472
-0.38016545458991885
-0.649885825955287
-0.7703394734321012
-0.9814295240373432
-1.2049766588872597
-1.3398379405562129
-1.2293556679249398
-0.5045055757807214
0.5067121947808164
1.6487907440955814
1.7631504334255381
1.7174263373179366
1.4232920673408882
1.0882025972458185
0.7956652069345905
0.6293325456613998
0.5666861059835229
0.5001797805714582
0.30465513791059085
0.128459066173645
0.03964890773105818
-0.050576844130802226
-0.2146567164028349
-0.30946042335547985
-0.0751143315337543
0.7347500670041179
1.6721981669027761
2.468177497475078
2.493973248729124
2.249120665687164
1.916025932957374
1.4811812275832494
1.0510374392651625
0.6904573636210096
0.4300294026354071
0.24643464477826094
-0.04274869344678259
-0.3235923912074549
-0.5618040993386234
-0.7315475364196247
-0.8781059504350244
-1.007975515012696
-0.8512940408973286
-0.06126531716337253
0.9017801781690703
2.0591737348177714
2.2304959558595376
1.9973548691576135
1.6872820418648007
1.131143861316345
0.7811192067220507
0.42471950649057605
0.22147938317865482
-0.022731832323813345
-0.2926016628163007
-0.729197012764878
-1.029926271799005
-1.2825552712941086
-1.3923901406159558
-1.4977588292791293
-1.5377024621249125
-1.1057489360130852
-0.24710089290258297
0.8578268229678913
0.6410290886490482
0.4242313543302051
0.207433620011362
0.004502088036563469
-0.13947321325817974
-0.2834485145529541
-0.4906033209273743
-0.9323052401095437
-1.0310563553317071
-1.1267426408851593
-1.2224289264386012
-1.3181152119920534
-1.4138014975455055
-1.520334998362098
-1.6668456732286616
-1.5926234945811255
-0.8257636970470773
-0.08506636959177172
1.0557340272369724
1.4786569830805754
1.324755513621054
0.9777660039513599
0.5521252159519145
0.13563550393638898
-0.20363339168795352
-0.4839145387603628
-0.7614542076124626
-0.9076459717213273
-1.1050416527926825
-1.359368823790621
-1.6156803643471265
-1.8745394513885756
-2.0540039
-2.0540039
-2.0340738922357713
-1.8568262534226627
-1.1946235785405994
-0.19210130549420243
0.7872120404808451
1.1779855601500364
1.0243253821874803
0.6947073189908137
0.38331957140138534
0.07506629482137506
-0.1697145268254528
-0.35198874636953525
-0.5056331480613157
-0.6127697310489293
-0.7477269645627749
-0.8710355447880943
-0.991489192264911
-1.157557300960839
-1.2699376748022768
-1.2840322166213105
-0.8912023923639805
0.022705861836597063
1.1502601819304434
1.7510774419459962
1.7682577897634042
1.505298404642727
1.2187635614331662
0.8440801826935421
0.3986443619518112
0.14637370999675114
-0.0007797625325391133
-0.20128514549442544
-0.46702734023200654
-0.7827817396488626
-1.0753056367070872
-1.3125184935471255
-1.50791919704075
-1.6904563059642435
-1.5873672491716802
-1.014930788748055
-0.06945894303930122
0.6780196221606288
0.9565252959530108
0.8201779227567124
0.5452607427362494
0.24013237698974144
-0.09463165937782772
-0.32552535693261775
-0.5004041580334537
-0.6747663123733036
-0.8038493773865406
-0.9638380721446435
-1.1393557493232904
-1.3285988383654985
-1.4899927721106063
-1.6463408319530797
-1.792187362893919
-1.676804142246379
-0.8986565738176612
0.15568125143693634
1.159464437346551
1.4570098431487917
1.2704495127066164
0.8344380445818231
0.34477828116903253
0.03318190058970849
-0.3097259644244725
-0.48730824328393607
-0.6729778235597703
-0.9565758489313351
-1.218551993278026
-1.480240466966082
-1.6564598659156522
-1.8071572930914932
-1.896424685714007
-1.9008327677460402
-1.4942986605408333
-0.5056941635711854
0.43494254568821
1.2484744138819879
1.2141155919852262
0.9043806846668527
0.460073877734199
0.16244441545614396
-0.14381972181518457
-0.3811396345437067
-0.5459034394929063
-0.6774085338444703
-0.839339687183673
-0.9059036850841887
-0.9061759532113375
-0.7937353414530184
-0.5053951057277247
-0.2694841473548528
0.17307563358670536
0.8640711851174459
1.5142930855550283
1.6198344472065225
1.19077194778162
0.3986441633984355
-0.1902773960934703
-0.7196470155799614
-1.143794355637908
-1.3658714263006502
-1.5331962172535434
-1.6365221752236039
-1.8233163806668742
-1.945260411483215
-2.0540039
-2.0540039
-2.0540039
-2.0540039
-2.0966414213222158
-1.4372193930211643
-0.43477302397038353
0.7788387593602267
1.0803024424578425
0.8839633307563822
0.5229367196418214
0.17507346948652514
-0.1295040066926869
-0.3719971242316917
-0.4916674052092717
-0.5766115197022629
-0.6815354023913659
-0.7927926809664221
-0.9118835856655154
-1.0324843133135835
-1.1343688966780363
-1.3199697488900008
-1.2944977685111179
-0.761000051294749
0.32070713945100593
1.2937069154393277
1.647090803065493
1.4144607708257464
1.0128737853811416
0.5874230908979923
0.14521098446340538
-0.20213228837054714
-0.4750750167840462
-0.6789152150960579
-0.8166158186932148
-0.9966567838596925
-1.330130487352757
-1.5515064079262384
-1.7081063555493377
-1.8833191606672406
-1.9359086868196345
-1.6974226050644026
-0.8359386039229767
0.315076652845371
1.154966173529996
1.3619222788487084
1.1775122684943595
0.844979398497818
0.4671246197283079
0.1593579213114252
-0.05328122392688057
-0.1686664955448957
-0.22134407225704375
-0.31387615636962557
-0.48566206594432687
-0.7713653723273691
-1.0228569459033414
-1.235993026260861
-1.3468026883626878
-1.2974368045075324
-0.49499335960839674
0.36591386524973135
1.3066656921110995
1.4862729853678611
1.284072642098401
0.8885635545678203
0.4338666264411081
0.11322167418931761
-0.10076768071609563
-0.2504870497616927
-0.42530177520212137
-0.6384777737849817
-0.8245415386968459
-1.002703791187582
-1.1909296099752387
-1.3650253137933468
-1.5213441850769496
-1.4945404727943323
-1.01772887682987
-0.09924053457321358
1.0846031298553886
1.7085758484929956
1.608130574512123
1.236154872305271
0.7816982673610501
0.4337071620436221
0.0729295421279953
-0.18790009860589457
-0.2843877009713287
-0.3938601110103653
-0.5233820688336305
-0.7515631697403966
-0.9155383687004197
-1.133352276134711
-1.2157232486507814
-1.2936287195799283
-1.0552585467908528
-0.2402492292560403
0.8243465917473656
1.6023166753485434
1.8243784885605094
1.6777950918692544
1.3303956170180402
0.8620911438900063
0.5496830366243304
0.22321867484333688
0.04208961174467085
-0.13016994004462573
-0.34025146274913765
-0.5938258266414284
-0.750829286114142
-0.9191041481273976
-1.0421468312906161
-1.2171909646922088
-1.3805566674719596
-1.4420780408158553
-0.8816573523923805
0.23080026607580484
1.3009431509857763
1.7637317082300406
1.6113209925998455
1.2618905914061576
0.7967723661541003
0.4767893138427675
0.26713108196268
0.08496581465210863
0.007613638432632141
-0.1267401199530427
-0.3155154349350463
-0.61179051217978
-0.8596423436524421
-1.0716928370529657
-1.247117474508186
-1.3860009217159701
-1.467662281075337
-1.2569541221483518
-0.5434666184694132
0.6923197238719873
1.5283344731491686
1.7411862463044072
1.526149881375122
1.04841851440974
0.5988606591106376
0.27265824297246044
0.0622629640298372
-0.10560460644916085
-0.27620237794590563
-0.49855874883563994
-0.7326027641388394
-0.9452405576692817
-1.0598082764239496
-1.19230150251964
-1.3436158242081757
-1.4518599894772373
-1.4078157150139659
-0.8658915242796503
0.09114510016645008
1.235341803636868
1.8896762582610445
1.8222414209911821
1.5136326010215315
1.072388545843062
0.679042988259424
0.20011181405038697
0.13080851243224853
-0.014284622461952681
-0.15712101601212966
-0.3460695909219963
-0.5849793328872196
-0.7984288762227912
-0.9469381134164289
-1.062959490505593
-1.1540931439619646
-1.0707860188019647
-0.5551206765896879
0.37292209971111523
1.304884827759082
1.8203866637076367
1.834691243795861
1.500516017183505
1.1040577354368502
0.6929800905208705
0.40162647422395226
0.16592304885665993
-0.019704956885824354
-0.19310242347581325
-0.3945305929824625
-0.5880807811109371
-0.78378604285551
-0.9238428202486643
-1.0983963649188557
-1.2569018031620534
-1.095157873637818
-0.3062900380842606
0.8648280146823019
1.6371308230947716
1.8064765815596253
1.5740886223225479
1.1803808435835779
0.7332013761933411
0.39064481133569706
0.14436900896388163
-0.004605403966234579
-0.12104369771823309
-0.3233569078404026
-0.5491887842993176
-0.7161650102608682
-0.8992625138532823
-1.09130566240825
-1.1832654197008132
-0.8584512753133522
0.016524914607069063
1.0709973831219037
1.6152773849316258
1.6605629540622893
1.3825206046235947
0.9804013329550272
0.624165949944187
0.3773509561085058
0.25327136246206705
0.13783036000055016
0.048877975563376266
-0.16237567604676023
-0.4368047540411226
-0.6808128933855493
-0.8627087027529199
-0.9966553219576021
-0.8306438929407277
-0.20137588949462126
0.7068665103639534
1.6668497387616972
1.870936124768643
1.7434981952004667
1.423034522963585
0.9552136098760347
0.5627475391274701
0.3481048722993141
0.24224265090674013
0.12255127467530165
-0.015019580730085386
-0.2293698918326931
-0.44556877411545215
-0.7681991839360793
-0.9937774016147126
-1.058969529711683
-0.6053107596800547
0.2965660143225479
1.2935624443532756
1.7368852205617606
1.63434965882153
1.3030628464416882
0.9522704154624816
0.6104381902361418
0.325931981985338
0.12333596304652453
0.003103997760977195
-0.166553587250955
-0.32286732502033055
-0.46322072738396985
-0.6490623082407344
-0.7647274154288111
-0.8113951993533799
-0.5820611796543281
0.10925907263773538
1.376428983608853
1.9886431226557308
2.160842136921997
2.0023024242230316
1.5718871770164022
1.131127444385729
0.7388015371154878
0.43886997582574533
0.19328688296568355
0.027491814673869366
-0.21304612714262255
-0.4086264854067261
-0.5627028903651446
-0.7187738105114468
-0.8923358858707722
-0.8971035104401348
-0.4265625419568764
0.46793903629541916
1.3461868530353551
1.8105418508701128
1.7706531881194467
1.4988851314108083
1.0540107574375013
0.6380987641681289
0.3883864705291865
0.2620746954915068
0.15458525067740453
0.025116588947294648
-0.13606675545028124
-0.32951044024157744
-0.5476183685184581
-0.7057138495419296
-0.7424640943888793
-0.5483407037678052
0.18818375919757907
1.1751231290215458
2.007517651465645
2.146890166537427
1.9755263487106591
1.6437139425888678
1.2000225085625007
0.8704168429983483
0.5895914009086645
0.37855485230260755
0.20598195568678918
0.016590130943442805
-0.19262355598478692
-0.3503709543850558
-0.5647677580351259
-0.7123064835189362
-0.6349127627175468
-0.16840803550568711
0.6996227600296994
1.570931916782538
2.0866726450997226
2.0004165740411834
1.7331982232889818
1.3350151593312
0.9349695435233494
0.654684872456925
0.45356210701967736
0.29881260065476145
0.14181903535454443
-0.02312057590427699
-0.19394850103098576
-0.39322365536900006
-0.6208220430811819
-0.7727572474343687
-0.5463602523290896
0.15017132725548543
1.0951408183170173
1.8380122685179505
1.9788847873465238
1.7609859182973915
1.3358213698981272
0.9794006199258831
0.5796409109766154
0.37055463617550854
0.23756319724848735
0.10259096035622045
-0.08363406472971141
-0.3023114304882102
-0.4892282053351737
-0.6865423136250874
-0.8262313637580779
-0.7707412131800655
-0.3659489678012414
0.5203436533199842
1.4274892344843528
1.8594890370383834
1.7502138828259879
1.3091753282310759
0.9050111683911882
0.46847616493138866
0.17098589943318013
-0.0033046552745746444
-0.14983376316244185
-0.3104833337802627
-0.5312851005430248
-0.7330988890115152
-0.9183084005841341
-1.0662473610603134
-1.2361731576745445
-1.235494327590495
-0.6915828494912766
0.2402798322105334
1.206652774667579
1.683791310321692
1.6172931128758872
1.2696213961679472
0.85923213654879
0.4118446089800642
0.1445940765257597
-0.04565484531632505
-0.1813385602236667
-0.2981907024804589
-0.4675849121171426
-0.6506440067277008
-0.8351955022581299
-0.9755354095971804
-1.0801801416273722
-0.9171684039328066
-0.26691885510680413
0.6914349155807685
1.483584817480621
1.7703066992995145
1.565822933320382
1.2582162480997445
0.8954201286233785
0.5407158717283412
0.3356447573228192
0.16723921647353848
-0.028175030128661113
-0.24409865146414042
-0.4680971161861307
-0.7100986705074775
-0.9645619135909864
-1.2371772728643646
-1.301627820624747
-1.0289513597303086
-0.31955408670786767
0.7843505335553581
1.4487109884272156
1.718802637667119
1.5729753618587905
1.2023329921424386
0.7661763323481807
0.4104308663924665
0.11189993067505202
-0.07360392752784141
-0.21513934430053022
-0.3724083148164023
-0.5647287281928031
-0.7402425010776669
-0.9050753821215143
-1.0875841669156783
-1.1967976146859436
-0.9566533528563912
-0.24069062258151339
0.677220448998919
1.4087894715379428
1.5593688185522585
1.3391027134263846
0.9503620180054098
0.4915077331536831
0.17416201026274136
-0.019454931045844163
-0.21059518238131464
-0.3830458417507466
-0.5321051263631567
-0.7423851627097393
-0.9542875045838077
-1.1894560206314624
-1.3895618953598854
-1.3958022730030732
-1.0802298438885791
-0.33371238903127776
0.58908002977777
1.2239020281898887
1.2777671434840987
1.0055445780121857
0.6154312697683177
0.2519570543791992
-0.030586835320731642
-0.24724705356829912
-0.3826895907926402
-0.4837325349995517
-0.5783282735742009
-0.7353858623771
-0.9333512683227552
-1.1622936571787763
-1.3915180959096949
-1.4356033100811945
-1.0863900606156078
-0.3110323493703109
0.4326435236523969
0.75938721
0.5985629685831604
0.2536044149616664
-0.04981500961730512
-0.32807899558514336
-0.49261858182191953
-0.5485151544264029
-0.586483410719257
-0.6364953506508785
-0.7385547496383159
-0.9041728627442278
-1.0936895088000074
-1.2273038812817707
-1.1747391338361934
-0.7932888522246224
0.08899384147881406
0.8902305275977214
1.2910387531373126
1.282580035989248
0.9892918389926235
0.5728974072536653
0.2643385030597755
0.06232855140267833
-0.09401554224364389
-0.24635733230748108
-0.40444734936312415
-0.665063941206207
-0.9028395779090608
-1.0278085998932425
-1.1963160184338895
-1.005020501111452
-0.47654159089609804
0.5316051104176397
1.2457773156171723
1.5406673768144437
1.4269518649795823
1.1517437079711697
0.7126987386605503
0.3210672116022484
0.028498661081391874
-0.22304060358521016
-0.38617260620413263
-0.5373810948132889
-0.6911113195551635
-0.8672854018534056
-1.0549617933272017
-1.2200552801992548
-1.2036925137279728
-0.7205596165617372
0.1789625971149399
0.9232597370687405
1.2303950606263359
1.1128442958131466
0.8387100529157665
0.48296392242775305
0.15767296053403673
-0.08582393704682134
-0.2699630258973383
-0.41688881307954256
-0.548005134222495
-0.7038514745403044
-0.8468000386316505
-0.9965559071852378
-1.270490849897183
-1.3734679153619742
-1.1431719668559917
-0.2163014352999478
0.6540444893871397
1.194769641827496
1.2716145462754298
1.0149561974810368
0.6663353057141244
0.27861080280822226
-0.0007925587279511079
-0.2621231694693144
-0.43480641916551227
-0.608296678605059
-0.7406914681635806
-0.9121946772851812
-1.0265553209080238
-1.173540971847942
-1.3485359156798726
-1.4937909343181335
-1.2257885207287254
-0.4534760617368482
0.642468096305046
1.0665889539839544
1.1483770417823533
0.9280972757273033
0.6764159441427294
0.3361811905031705
0.1354205326658151
0.05163544241048982
-0.06467764121788716
-0.2509039853378881
-0.43653286619043247
-0.6744919362979952
-0.828718449124351
-1.009859648004464
-1.15601361879662
-1.245120465471528
-1.0676259205957102
-0.3335379631190042
0.5414922671146852
1.0874838759002456
1.310030321781083
1.1082327694463918
0.7312708700644502
0.3577510201822086
0.06299853611953139
-0.17504692153095136
-0.364734436550055
-0.475327792470511
-0.610367836409913
-0.7587181627250359
-0.9140108530142381
-1.0963770575190432
-1.2671146970660232
-1.3396866647272845
-1.125678397781773
-0.43735083502088223
0.5162716705245245
1.270262395964452
1.4374263927823447
1.2126032733682237
0.8200162607439236
0.42227683254283044
0.1375215304486612
-0.08099996810302904
-0.2540280938931863
-0.36843001855824
-0.48506311745559216
-0.6326040215470055
-0.827819735628656
-1.0380721359228906
-1.259191835263614
-1.3494326494484594
-1.0256942149867303
-0.2482283619702293
0.6220811129339192
1.311511756339318
1.4533338167749328
1.281884287063007
0.9889075618702104
0.6269811706976565
0.3074918372525878
0.10973012458577464
-0.01185586666889231
-0.16286134000113742
-0.3139795169831409
-0.46587547678924673
-0.6389482120594081
-0.8431376384075353
-1.0683954632209307
-1.188561930463088
-1.0421149357462387
-0.3067439210437838
0.5888226075654737
1.253704850436225
1.4016845167633873
1.2380423704591594
0.9692029310743668
0.5910694496537315
0.26608029708478276
0.042736456618521906
-0.15104229641048175
-0.31089734008888575
-0.47444181146998976
-0.6232819900071043
-0.77598893658087
-0.941877105324069
-1.1086295625275224
-1.2164070030843754
-1.0193707446418847
-0.31870097755614224
0.4907146875810955
1.2177444668920323
1.3759033495965247
1.1599081857616265
0.782176919217674
0.3967967056065637
0.09190775671682655
-0.09200128090670592
-0.23317555954913066
-0.38932130976625445
-0.5021205513677018
-0.6632524187114652
-0.8335026283817253
-0.9680328519109177
-1.0741925229643456
-0.9919803050626522
-0.4400668648374181
0.3927341135895847
1.2573558763601729
1.7516562874798063
1.7129686523173069
1.4169841252420867
1.0323496888552635
0.6738089336346287
0.39896150895366883
0.207734265659824
0.10593410857847048
-0.04310864862351815
-0.2203626586915211
-0.44011247658120844
-0.6666875765996643
-0.8565548176503228
-0.8934653175095355
-0.5089569882084808
0.47877149563272325
1.3180211787371627
1.8432483401797943
1.810829431399694
1.5085676608893641
1.1700606562247735
0.8238373235538046
0.46739742633341763
0.2510451740270696
0.10363828479454461
0.03975426164267506
-0.07724985515746387
-0.2330576412664623
-0.4233509053134894
-0.6455620769965947
-0.7132832544882144
-0.38103911874780505
0.34454610426950694
1.2087649767605093
1.7744541938896354
1.8607736967346793
1.6549643299673054
1.3357019799652778
0.9126329677955143
0.6080636067844822
0.3666021540563966
0.20834556538006063
0.0823932247587977
-0.09005293886444243
-0.27027794847080183
-0.4759980826096191
-0.6548564998509112
-0.7499538184644718
-0.5019215216536215
0.21050035725297478
1.0763223497741328
1.7531768237674423
1.9034873039681461
1.6850503628740021
1.2822804255335827
0.9031851226839367
0.6118568073217291
0.38621872651482
0.21898235138386987
0.08020262969377684
-0.018400356424726507
-0.24406662871213408
-0.4527237884983535
-0.6569427047681692
-0.731166188492433
-0.654086956259899
-0.05075925420044258
0.7678785681029069
1.4092816545906626
1.6833077398080853
1.5640594498654454
1.2170641037323409
0.8573419744497923
0.5608674720114886
0.4056056623962694
0.30227928791619024
0.1969897561557441
0.12430580567818429
-0.050643383781818714
-0.24390627076528307
-0.4604244548410388
-0.5762181554455883
-0.5037268440686316
0.018682555390111655
0.8917575157231376
1.7461212077254096
2.066867766514438
1.9376414086492366
1.629738746826553
1.2468637366944637
0.9454192836489724
0.7248494974442034
0.5306577204018689
0.32174600563329836
0.16872370551933577
-0.005487928781347615
-0.23812189512804072
-0.46358256261616454
-0.6516534530019082
-0.6366443690418627
-0.27176387093807125
0.46984580862787084
1.4484243830030286
1.9622539921226985
2.0704423884654686
1.8804336576871552
1.4219798056024073
1.090986409477358
0.6779194359103231
0.5475759369642728
0.39035863173701374
0.19124005809252553
0.02621917476807724
-0.19033068016068388
-0.6098727207856135
-0.691290506544985
-0.670045137768667
-0.648799768992349
0.27240301306121895
0.998958077139297
0.9073149024228698
0.8156717277064426
0.7240285529900155
0.6323853782735882
0.540742203557161
0.4330104052060354
0.2819227138422133
0.14137574327010985
0.02653271248433365
-0.019733331209854904
-0.17888583010991066
-0.4283448934428055
-0.5852018186714076
-0.7938988633898925
-0.8899304377291389
-0.5541939362545125
0.23804823365113942
0.9659546264864572
1.6897785998171022
1.6662060643012786
1.3790759884022925
0.9451692084213152
0.5735140804910844
0.19726654118701836
-0.024738640366182337
-0.1411987920315689
-0.3339689710064496
-0.557112643024867
-0.757642896320472
-0.8995587339268708
-1.0034158385638219
-1.1034605082579994
-0.9327354364246737
-0.2718680813368991
0.5667648373474867
1.4098332882046916
1.7257029828789627
1.6754272360581808
1.3256071075174531
1.0309203130857525
0.7354080848244335
0.5114746609833949
0.3421947076014276
0.17038976173794068
-0.0015807257660108535
-0.18732718316702734
-0.3832045517508799
-0.5883425116494674
-0.7943760946532404
-0.8434430872515479
-0.43573443815858404
0.35835612889021895
1.2507089949038313
1.6237604047748213
1.600247566147039
1.1978212266000368
0.8277119954046519
0.48705123668440214
0.2235617129135457
0.07069983814873862
-0.09379042335270998
-0.355115192161703
-0.4660354100628976
-0.6536582999418794
-0.8230781885204388
-1.0678348612022501
-1.0722149287919072
-0.6953602890204844
0.08538578869762181
0.8717543728774213
1.4043182635861708
1.4058101212790968
1.1290015418883923
0.7603128234874306
0.3955390650090712
0.1405174440678646
-0.016287395156600562
-0.17366225957568615
-0.3621147211093918
-0.5268043531702048
-0.6838661265028048
-0.8655245098621104
-1.0952393531831734
-1.1984764155252534
-0.8985760064801251
-0.19689450722208723
0.6970740227437073
1.236044155533708
1.2990974985813988
1.0493114518562545
0.6743125788098763
0.25583355158096666
-0.0358617784497636
-0.188880289100279
-0.3246561675436631
-0.48419586768320344
-0.6483838309443618
-0.8145998343389111
-1.0919620067277853
-1.2736814426129004
-1.2867791309374672
-0.8451938136852799
-0.07621845894257473
0.693664804703905
1.1539892744493545
1.1294732572908177
0.8554331040457988
0.5286172754921769
0.2562770126719669
0.055218236247364494
-0.07451575537345198
-0.18954446507331324
-0.3314114372537872
-0.5336091463105062
-0.7487180003652386
-0.9831571721515797
-1.1511257680858482
-1.019309176048358
-0.5063532735084305
0.1433490958565783
0.5686343103059159
0.7165144224214587
0.5695476491708905
0.28220747652506795
-0.08517151475507811
-0.3851859613802
-0.542527753998562
-0.667584738706187
-0.7965618471513832
-0.9440800088572674
-1.073807030670372
-1.2288303847709288
-1.3749175571379229
-1.3667931992237385
-1.0196436826308493
-0.2843894288576442
0.6668964404367175
1.1462822543280105
1.1639197344989207
0.924480678069496
0.5845972050459287
0.23657323055323076
-0.03703387787959361
-0.266828772887521
-0.3577401721737294
-0.49822274383864307
-0.7109110192141803
-0.9081696884536207
-1.083763481346019
-1.2713398100723783
-1.304655642067568
-0.9089129644475338
-0.060561360549036804
0.7895167857093903
1.1724080726613344
1.1154259594006188
0.8120745132414982
0.4392557661395428
0.12767059257840058
-0.13100732123347536
-0.32966715674013464
-0.5093966672253036
-0.683846782442938
-0.847907375109034
-1.0264907695411927
-1.2161815774147007
-1.4486881032875147
-1.4740305095028923
-1.138455670712347
-0.22234774469267976
0.6700386319753301
1.0651933385517869
1.054194888943737
0.7867509142035646
0.48975152447637793
0.1322023796785687
-0.09522792950340714
-0.29289410400275423
-0.41145083839733804
-0.5379854936631103
-0.698624381021278
-0.8744668176435769
-1.041024583787431
-1.2679293070340432
-1.4526374551658312
-1.2367138706833145
-0.6191055747171668
0.47218252788426396
0.9811090109775229
1.1235247071756471
0.8684062628133806
0.4886741236478046
0.16486341055352988
-0.07572001469079426
-0.2302841262006741
-0.3546293000975273
-0.48962627226232613
-0.6483091197691008
-0.8234542048230461
-0.9739873910936535
-1.1245581111592882
-1.2369810718555017
-1.1446070948193339
-0.6656089077224121
0.2527654516135236
0.9974893226279313
1.300550478526544
1.1500184599075816
0.8273502034929778
0.45806163344120693
0.18053941947843175
-0.03672252303612293
-0.23836327855181472
-0.3663593894462567
-0.5658233364449716
-0.8187853352462832
-0.9190438534884466
