0.41767144
1.5164213926600216
1.913416547224805
1.7778598347356809
1.45494465868054
0.9654747067528109
0.6104458206876943
0.38305954268120984
0.37470640609359446
0.4394727919367714
0.44557946009264326
0.34652540622591754
0.10552783276708445
-0.09179895032499047
-0.36021711910608767
-0.6629408583645998
-0.8485787363733805
-1.0520174497961516
-1.1972146002626387
-1.2912914382038296
-1.3075917771850323
-1.3043084248966088
-1.0003240404604712
-0.30321804438989103
0.6870540913694594
1.5541094038431855
1.744227566177039
1.5657298846725105
1.163971694417512
0.6947540645817227
0.29471865266244884
0.13205724245851508
0.16771947501218665
0.263661752173452
0.2850238000709874
0.14904229071615704
-0.0949742211170394
-0.4400583205963582
-0.7895206185416734
-1.074339805188862
-1.263260208156535
-1.373284062765636
-1.4545904207509965
-1.5530034109167046
-1.5507314387257365
-1.303674252395084
-0.18462387182247852
1.0370827420250628
1.6292167305787832
1.703926960784346
1.343339152526476
0.8766191179577847
0.4334480026541742
0.2102944040476719
0.17746548393461684
0.31969620208145744
0.4579559545139804
0.3834562226303497
0.18689870950253376
-0.07342788343757806
-0.34566579133099357
-0.5828433365050298
-0.8320969348392331
-0.8727500891265692
-0.9453648
-1.0035171654914694
-0.9465637545740777
-0.4973279783265128
0.31845111457214814
1.1485522697199206
1.9125546497139354
1.8922036225147267
1.5395125029329897
1.1371115480595584
0.7694762718685942
0.49635761030069975
0.43130280647706765
0.48903628736445287
0.5088114986583876
0.40460069102683427
0.23105304131128737
-0.02441514244367247
-0.2388951418633693
-0.42553482277337
-0.5706214821696312
-0.6663737231761282
-0.724741627627975
-0.7935264918126084
-0.8687212264674584
-0.8025565529017332
-0.4387812321411313
0.35025101161965955
1.078693508786737
1.5202446888675913
1.5357521784249872
1.2629596414395194
0.8820453492862452
0.5396053296785533
0.3162875843313352
0.2398841
0.26565886029009034
0.25485041396515373
0.15077507445511834
-0.01366258929980263
-0.2368579251638403
-0.4666242703163562
-0.6737481363125746
-0.8400259175414239
-0.9540100493503986
-1.0292765420564038
-1.0959845411122253
-1.1549637502558703
-1.1705621000000002
-0.9177598605011952
-0.2834474505926917
0.5568987729400913
1.2213904544778784
1.3864811071169836
1.1846508972260437
0.7916137164926662
0.43297169404981983
0.11075308583192126
0.014250021183279574
0.0634267615455279
0.16937543369514152
0.12378963180198088
-0.008325183486964774
-0.20332976374919862
-0.48893056773466803
-0.6301828348327176
-0.7790151970156549
-0.8407385557006118
-0.8847849957860772
-0.88610236
-0.8919419535796248
-0.7741044227806487
-0.33164595937502156
0.37318055453849697
1.269244823352519
1.4400563371661326
1.3316615260274172
0.9886738655746591
0.7202556877349305
0.47800802594021513
0.3576693396440971
0.35201475908975605
0.3884844514989101
0.33968115242631414
0.18311437823621793
-0.06873265408473472
-0.278950677649379
-0.471378752499247
-0.6228010805025379
-0.6960060291114264
-0.732509369384895
-0.76757747
-0.76757747
-0.7757384651940399
-0.8154236791973989
-0.6648916536992114
-0.21557568287864803
0.5991725103071424
1.2421875322364135
1.5184160330366796
1.4133821303421525
1.1256100364434907
0.8774653719743621
0.6328262928947181
0.5035781936010132
0.4222230919717497
0.39463500520151695
0.31850866899297114
0.1825738723743009
-0.002125092690676955
-0.20221863914669205
-0.43251775006739357
-0.562656706162695
-0.6848901284434155
-0.7722643136404299
-0.8386499873571228
-0.9037047911807584
-1.0103928378816847
-1.1132553
-1.0736544635963634
-0.5972412738268023
0.07866961233587444
0.9006308161338272
1.1137937771849429
0.9923826995065437
0.6598822963601557
0.37403437767499315
0.11008136418014446
0.0048598644129694175
0.04551301631212226
0.12135921
0.08658888204376125
-0.02806910153088482
-0.21694110340689465
-0.3856899580629637
-0.5489784622337528
-0.6569002161910362
-0.741888802742485
-0.7633575482879223
-0.76757747
-0.76757747
-0.8084891519028397
-0.8258687001306467
-0.5448821229358077
0.07189770267593398
0.7005127546454641
1.1161831279492387
1.1979282435830296
0.9631923774220127
0.6557021523950269
0.39197872555381014
0.23723549849165365
0.20892527910903264
0.25216178569150466
0.2788279505943632
0.20260818143169215
0.023646465104662673
-0.13375135579001046
-0.301761564527947
-0.44264534583567533
-0.5368791883473469
-0.6263844429969834
-0.6843576522686748
-0.7103986562191605
-0.7513235110566008
-0.8776105143965872
-0.9236583011530273
-0.8133245673075553
-0.34381018606177216
0.37583839782595024
1.0577951195733817
1.264224978936643
1.1356106412938392
0.9407558524276434
0.6325294450935764
0.4192956460036293
0.3161330548602773
0.29914655
0.2870765118786154
0.22416187040794194
0.07612301319922109
-0.11671412090020838
-0.32313973119262895
-0.5451061348334333
-0.715946192706951
-0.8026229364904172
-0.9058140304168517
-0.9605556575775198
-0.9951518829846961
-1.040975075467645
-1.1613519394028802
-1.262368594501742
-1.2358426349505818
-0.8608610350078538
-0.05358078015748908
0.784176721688229
1.0770486555365912
0.9990865949286438
0.7086333226852791
0.3542883324411341
0.045217009372701567
-0.030166450053889793
-0.00863789171255784
0.035583889622657315
0.04552581286781206
-0.01201516116452906
-0.15493912444624328
-0.37082369707831186
-0.5565541752263119
-0.6806290908523771
-0.7431160883513741
-0.7669367462320433
-0.76757747
-0.7735203385942688
-0.810968446872391
-0.8320200000339472
-0.7071773438069202
-0.1215377030546082
0.5973326297953673
1.0865740068094827
1.2294718545365313
1.026108496990671
0.6948871149973069
0.3579920438747844
0.17146161823112493
0.140257865609052
0.21558041587067603
0.23940107375134556
0.12212328049674864
0.012638194935430669
-0.14370767023865377
-0.38772418536588305
-0.5948539890785043
-0.7690068937393217
-0.8806323313355602
-0.9432039062725721
-0.9961993317435642
-1.0117414997191427
-1.0790443687980873
-1.062537766679013
-0.8803041150094166
-0.18895652191072188
0.6880281420236336
1.2879355991401353
1.2773625306494554
1.0416124059322942
0.73708056439423
0.4929373359680447
0.28706463828772477
0.2417322532942329
0.2878717119396603
0.289224142340941
0.21473382804474328
0.06871086535753713
-0.09351832661484959
-0.2732620745967053
-0.4464703050620326
-0.6100271933682018
-0.7066191407532441
-0.7874392598229815
-0.8859302291241018
-0.9541297814661329
-1.0732330869475672
-1.1846088273394366
-1.0124652828965754
-0.5022299281847371
0.2363521788383809
0.9565083139761312
1.1679730150175442
1.0274083511824266
0.6490647205973935
0.3774409088861928
0.14057624846801733
0.005273942525570508
0.029094602094438333
0.1040190062652402
0.05423351332180753
-0.05145435533677115
-0.24775758893234662
-0.4582179417067043
-0.6279934840542278
-0.7957880954076865
-0.9064802118977142
-0.9715838170110546
-1.0301645940339685
-1.077087958614923
-1.1226133583379843
-1.1495057444061605
-0.9624426434903476
-0.2727924307789125
0.7320918369671121
1.1550700897502895
1.2334872249413884
0.9948788059602425
0.6315109017800873
0.3140980448288067
0.12092111655074028
0.09421330067701049
0.1839196377643217
0.23627610312293387
0.18725028858898798
0.024539295763153696
-0.14926097795092808
-0.3600377504717321
-0.5609948464069702
-0.7104007928234523
-0.7882149550307385
-0.8274813789387325
-0.8764198026194239
-0.9097687292796894
-0.8811185240785746
-0.5328680778601805
0.22262217061415446
1.008385716250669
1.3527389206800045
1.3138614337810604
1.0815470910725553
0.7431124454408933
0.518152996808952
0.35936447732415877
0.30277989992506615
0.32643202881230043
0.3557140131969253
0.24978252133513226
0.09987763174035098
-0.0772232209915445
-0.26287250636377646
-0.425533916567702
-0.53869149431064
-0.6463226796003532
-0.64905258
-0.6869509878843685
-0.7456991486158548
-0.7800474424584757
-0.582329492851643
-0.06674630695379644
0.7181901937718921
1.2633867918220034
1.4038507690378315
1.2123179300322762
0.9178339491253202
0.5961860598495826
0.3785505548181806
0.2539153353651673
0.2398841
0.23486822291679527
0.1607478797869465
0.013503592004407136
-0.18698070082312265
-0.42702475701468445
-0.6794205382446782
-0.8780360665129676
-1.0198296960666289
-1.1296370574538148
-1.1963915435673713
-1.2276389496509137
-1.308813602505124
-1.3927332098631926
-1.1086129048854683
-0.3381584955731429
0.6488857064395337
1.1721907738544581
1.2111746325541082
0.9339114529767762
0.5056239205508684
0.21409106511764203
0.04643035508311592
0.09674776892672879
0.2107414673275812
0.2398841
0.1940468375946413
0.03673041518602435
-0.17276516619363813
-0.39631355504071625
-0.5437289494323685
-0.6918261391942453
-0.7301025862503056
-0.763089862065982
-0.76757747
-0.76757747
-0.5116352275746882
0.01140151987807625
0.6934530860290713
1.2777860828822292
1.4524694593999323
1.2778163998705394
0.9560189666005003
0.6352370512087855
0.38478228627193045
0.24978093
0.24978093
0.2902444482989377
0.2229135357043765
0.0771350400796139
-0.203124136193324
-0.4073355471262516
-0.6073273570644387
-0.7322737338835377
-0.7879910675897387
-0.8256866887020022
-0.8650185786257986
-0.9669516866926673
-1.0035541280566533
-0.6705422240646759
-0.1177935123392718
0.703761294280181
1.3224388033798664
1.51857777350856
1.366573385191478
1.053761538399364
0.7599575099171724
0.5439127324574577
0.446241058659169
0.41767144
0.41767144
0.30424559915098015
0.11822247658734475
-0.03184768072237562
-0.2453466887832994
-0.4070500022228687
-0.5583457664337307
-0.647207101418906
-0.7003287125846611
-0.7398973110315532
-0.7838970384774483
-0.8539753551358616
-0.9145798006783722
-0.757508382220536
-0.15996819660819062
0.6494855013781746
1.2506440202829565
1.3588362173339308
1.1520172658804708
0.8510572505907755
0.5498485569296273
0.2601519591825322
0.18627348232797775
0.22042094985278907
0.23420837109031967
0.16875703426828
0.02743221600683987
-0.16533648131074083
-0.41876348079209735
-0.6047928447126127
-0.7181953853808674
-0.8059918858554445
-0.82683991
-0.860895088596578
-0.9086019905502801
-0.8699924534098556
-0.4793525540079874
0.13275246319005168
0.9517595273016932
1.2172047184206793
1.159333740432109
0.8153564606999706
0.5602178087416733
0.18872755493682047
0.03971984975320417
0.04828653498455298
0.10929066376636357
0.1447982982851753
0.03841522935347379
-0.14949751868643354
-0.3797480198522789
-0.6445651776246663
-0.8081587672316204
-0.989329231685545
-1.095712290970398
-1.1760658538855027
-1.0784592392700865
-0.4810482599412417
0.16037355830497968
1.083210533352265
1.2662229460500634
1.0731240847768413
0.7843549126783435
0.37118456442875714
0.05729740513882642
-0.1089488934834314
-0.11838510321397448
-0.016243643423002784
7.856304618317211e-06
-0.12484462686036565
-0.3597223572479349
-0.6487272181687562
-0.933062910345198
-1.1617412565479897
-1.3895888177843028
-1.6975875228703998
-1.810018924597824
-1.4850184037919925
-0.4837691186933649
0.4973769847661083
1.5484211627067763
1.597224428838911
1.2193527005188716
0.8011721827800924
0.30357478598676163
-0.014582651215404904
-0.1366242811293306
-0.01985676178714487
0.09962519583813811
0.07405511417526597
-0.0990496707835298
-0.3675031255803544
-0.7133435425566097
-0.955137800507484
-1.110525492523292
-1.2093562238039803
-1.2989006199114332
-1.223808074265095
-0.6442549246855432
0.21726651645023076
1.2493822250352435
1.8307946103579864
1.7683606494887651
1.3798360582380254
0.9189187627800761
0.4909031881574097
0.22559247986701653
0.22552167367200482
0.34845698341296816
0.3822517668709056
0.26046593163696086
0.0388706276664217
-0.2111168110108629
-0.5104274734412652
-0.7953356928515196
-1.0199784013079483
-1.1213036826542209
-1.255153199676686
-1.1545558659616637
-0.4913931791518953
0.30754328763487665
1.3679682980091066
1.8623639190265913
1.7465202701635654
1.3906055279916623
0.9441463651285658
0.5661918911155509
0.29788947821702816
0.266711608833714
0.3718725262468134
0.4011483570747398
0.2711095444223792
0.046370330445704724
-0.21905691203480815
-0.5014382018908068
-0.7541130026997697
-0.9628375414472845
-1.0696211601123191
-1.1452400110160843
-1.1992562985167856
-1.0536825048784533
-0.4177818135469775
0.5418605038146945
1.377877176544972
1.6878195573984027
1.5381274982428221
1.1002601730420525
0.6362117591428083
0.23130841392663676
0.050235035013203075
0.04678273671872049
0.11250867968224793
0.09028333159101962
-0.01691620769657734
-0.34158934418843756
-0.6927067614867124
-1.1301568520078806
-1.4101575318088653
-1.711072938549213
-1.8837296019899927
-1.9954899598896212
-2.07433657155172
-2.128559655228313
-1.8379333795721908
-0.6461535391351934
0.6199343050045434
1.882713735568647
2.0077497282555217
1.6781539049760974
1.116127604755561
0.4968371128783693
0.18177742875741
0.08164645598398677
0.2764901221432015
0.46266405523474025
0.423911091894998
0.19677472212029398
-0.11181490938174923
-0.4495099238265288
-0.7998027636234122
-1.037037624506941
-1.219231797027725
-1.3038671254022902
-1.3514051045737543
-1.1650276343985289
-0.45690901246373106
0.5685198008186484
1.784833001151198
2.0758018740863986
1.9227175649332273
1.5374127254151255
1.027964757253342
0.5480818619019768
0.31674939921026546
0.3133526349053433
0.4784188844176856
0.4865690374380569
0.28698248839787444
0.030963047351081324
-0.28739855530422953
-0.6311566709251688
-0.933528422393157
-1.1531433011602665
-1.2599478357749145
-1.3388017605584803
-1.372986177539117
-1.2228039674484057
-0.5151560814851132
0.7025864825642684
1.694176280733369
2.1110367326538535
1.9940672523216307
1.583392652975734
1.0547064338464314
0.6286986396506075
0.4207348045819014
0.44109094299494545
0.5330681269390097
0.5006145487795272
0.3396934959063479
0.05449928378194695
-0.1990680003059185
-0.5835486773294702
-0.8988909004555303
-1.1436630123250977
-1.3086106580851489
-1.4336691023710033
-1.5738379153594861
-1.662610376887506
-1.2895193619959202
-0.2885475881610201
1.061833314427142
1.8985916679532626
1.9798204345845265
1.6015292236891685
1.0754293825202275
0.5410862867909069
0.20672206895772424
0.16334346701691516
0.2737688951931061
0.3510141592786238
0.2647693272520361
0.023447436339380484
-0.3334938725722989
-0.7491605772447005
-1.0953476107080207
-1.3217829376188448
-1.4644987123125655
-1.5280942494170364
-1.5984558982889208
-1.6058580096617043
-1.1481296875107985
-0.038998640053446665
1.1612380324661347
1.9802958724151312
2.0224091840845393
1.6733464637659168
1.113180374931032
0.551492126998925
0.2665931509941817
0.29167685678927147
0.4792721282325857
0.5580471584512383
0.43061588625573666
0.17285732929470274
-0.10243806391599752
-0.45638159544278145
-0.7481218468190467
-0.8914240708771817
-1.0167974754932603
-1.094409409509424
-1.1494418068033674
-0.9126798198066577
-0.18256629971041083
0.7984508458328194
1.9001818531147243
1.958495
1.7218909899819652
1.1974668125464865
0.8895442574929666
0.5932580126626373
0.4299568350223412
0.4367236614805854
0.521172231541162
0.462391999540704
0.28634100306802024
-0.030219948042241568
-0.3086987903903699
-0.6105814620913087
-0.7455493236954457
-0.878731203828918
-0.9269813172261115
-0.9546527849344522
-0.986786028833423
-0.886739299498577
-0.17150760967687775
0.7281661690526446
1.58983332253331
1.907519818771958
1.6660894500114538
1.3231004569795484
0.7860481612231578
0.42677694064996613
0.2473455860662392
0.24391234716745724
0.3093091450341604
0.2793261901044776
0.15741819861495177
-0.1155374995883486
-0.4054402343591716
-0.7612531001974018
-1.032027471162791
-1.2644376751098496
-1.3865737574778707
-1.4884596680419289
-1.5610315207041592
-1.6160253326848326
-1.2270453093640328
-0.29422548717960795
0.9003911437987107
1.6532337372251997
1.7910010481098373
1.4857089672510846
0.8838345686848015
0.4488972821710405
0.05883276198395285
0.027056001541396014
0.21023343614859094
0.3700923027136903
0.34501868418200454
0.15004328411696877
-0.15077419318310464
-0.4573377777696218
-0.7204169005073568
-0.9272741374308316
-1.021104160992159
-1.0768480748295424
-1.1154070282075172
-0.911476287840599
-0.30498471635104696
0.7245844261286936
1.647637547656494
1.8509008646390999
1.6597339875558714
1.2416386434936235
0.8187281280727481
0.46518311606943635
0.2536794033971982
0.31947253774093565
0.418237231396285
0.42486738954202696
0.25711970055449446
-0.0232171036603262
-0.27434564938016326
-0.5536064828408159
-0.7893425651110839
-0.9339214645213806
-1.0024678282196455
-1.0518625076332462
-1.1029077048093265
-0.9043863560840606
0.02467161925932882
0.9392238493115529
1.7527353568360324
1.9577021989415555
1.7426404166637384
1.4000469433135876
0.93916533362617
0.6531433104277302
0.49529817702178996
0.48559624935996165
0.5118151740551541
0.4341946661174962
0.2261533375116199
-0.042948657551210634
-0.30873409356852766
-0.6178054092253569
-0.8521761919458409
-1.0263500247615556
-1.1616618377212937
-1.2811268920743837
-1.3553711032807283
-1.3343740992671391
-0.9799791653070021
0.1299216422717671
1.0455205282659534
1.7786757514652978
1.747091458724805
1.3505066488402144
0.9759262874158199
0.4902167348274468
0.2786845000988024
0.25234111789651914
0.3302763515895134
0.3475642898040844
0.21655532510633424
-0.017483481669291978
-0.28298057711447905
-0.6267789144015171
-0.8870957322754576
-1.0541351101482777
-1.1778276213973171
-1.1570132712937027
-1.0995767311496618
-1.0558137668012588
-0.8408180768246208
-0.23541736139167507
0.6796312375528369
1.5247214736920012
1.8267022783822306
1.6643983394261732
1.2984641541142392
0.8202228631750951
0.4869006192561771
0.34702903947627656
0.3521366240025727
0.3848211249705454
0.3001904633867664
0.12896337758796536
-0.14175578285319873
-0.4001005382145881
-0.657364849451111
-0.8285915575131049
-0.9452040448109906
-0.9911957228064905
-1.0170867188084851
-1.0500689358390816
-0.8716212782773836
-0.21350452503701045
0.8202802516467617
1.4282654249482265
1.7001953532928507
1.5285909764624537
1.1003391886932705
0.7933282403466517
0.43959745746698153
0.32062291742603194
0.3479554896839509
0.3936911605323223
0.31219369380301504
0.09874390825485313
-0.11584833347460169
-0.356396459955328
-0.5848225425935629
-0.7725146900903408
-0.8887300068354943
-0.9845796926703976
-1.0748191864482686
-1.1398739573314427
-1.32960456970976
-1.4050207383779694
-0.9170914339586327
-0.10776296329974447
0.9659097315889164
1.5940688064045725
1.6952947465665318
1.417799889628228
0.9909537213414789
0.6167788252766564
0.37303179730013863
0.2529998042528644
0.28988466752224906
0.2792992354714931
0.14533695085146808
-0.005543113062762645
-0.37502759664568497
-0.6507231567045166
-0.9192496191808043
-1.1031672218648052
-1.189442265167919
-1.2284576379785912
-1.258891167148527
-1.3394333453431877
-1.3180574864513082
-0.8538916530384955
0.045094630148760695
1.052021349606686
1.6679237025295375
1.6299175725195423
1.2959093559823753
0.8563283556510104
0.4776866698602783
0.2439210036461874
0.24146565508673642
0.34973769405312866
0.3650974687001736
0.19598410213289646
-0.04515813241396008
-0.3327761159070233
-0.6006222394564285
-0.8078402644523601
-0.9523547585314404
-1.046419164805359
-1.0638896999999998
-1.1094089593072451
-1.0938805065054142
-0.6307192163530304
0.2437665628504847
1.2979440032352212
1.387213556662571
1.201717717019314
0.9789373061956723
0.7561568953720784
0.5333764845484366
0.4104972270309569
0.35840899
0.4032039810042691
0.38638034398418236
0.2957687704517272
0.07338083099581005
-0.3156917707319007
-0.4718623376463204
-0.7351124931670604
-0.9463949126192543
-0.9781716722579038
-1.0498495164322663
-1.0681051311512844
-1.1012214461456657
-1.1532945469200682
-0.8372003991749892
-0.050533488755209244
1.2055909416517634
1.6956295494655667
1.81939520288195
1.5653240599133997
1.1766911025618778
0.6454534667506574
0.3584030650935983
0.21103184654933643
0.23281288089585173
0.26854386771685373
0.1348507408344754
-0.07943834827482105
-0.42404945233297614
-0.6734252817585197
-1.0082372470750032
-1.2249226129865083
-1.4219210711363708
-1.503815413730999
-1.5696709456468778
-1.6602671175182635
-1.7578737321336904
-1.3609800984112885
-0.39033006299643436
0.7803561063826223
1.6498558486472337
1.7761362808066201
1.401961327096168
0.8584004565653871
0.35249701688663726
0.030830478940934887
-0.010082018868908475
0.17049020005237855
0.3124868964644103
0.28461371416353504
0.09340674099087251
-0.2182341785030687
-0.5761088014677717
-0.8870458457130885
-1.1016275732718417
-1.2127814297665955
-1.2531546254983719
-1.2892015336235814
-1.2485483958064787
-0.7753022716069715
0.09595408209427447
1.446134012426119
1.89351386533525
1.9505785394515462
1.554897256214924
1.120412731851931
0.6224614417710972
0.3476983979428364
0.2907700955156234
0.3980286007866463
0.4243778760455766
0.30087141123953254
0.08374444317954666
-0.1637057499528602
-0.5150895378630523
-0.7949448925266391
-1.0232224247863397
-1.1703350613386072
-1.2491893262682536
-1.3052318208178608
-1.36726078840415
-1.3420304298037087
-0.9167858970478341
-0.02720231840689885
1.137980044511861
1.9757863558824438
2.0341136145040966
1.7485231828179413
1.3154412872503982
0.8755940738933062
0.5583726052160708
0.4535339552758709
0.47625350113710835
0.5065651
0.3902385759108661
0.19071843029643057
-0.15833678328173748
-0.4882509944965095
-0.8041176769626148
-1.0846120336676142
-1.1903687765980282
-1.3530250669611803
-1.425066886292717
-1.4901216571758842
-1.604828888309421
-1.3595020633846955
-0.6089251542279273
0.5818936253435965
1.7531728689668375
1.9617955248565146
1.682737021214467
1.307164246195259
0.7636329600533445
0.33022387117796376
0.2004650067814098
0.24926830585399792
0.3485776974147505
0.2822390156081088
0.023448911036062503
-0.30204585342456014
-0.652932625958732
-0.9985639358134879
-1.2789102872883078
-1.41653919180928
-1.4612299659957206
-1.4148093232346097
-1.3654157642321738
-1.3602019
-1.251388433745296
-0.5992294159729918
0.5045236299409173
1.5816660455864597
2.0992170690189615
1.9576338814696965
1.549641047907983
1.0272892785353225
0.5755737069802126
0.3505836835509312
0.3826054026232972
0.48090310874580494
0.4717959118641997
0.2961796980840584
0.043824364856233006
-0.255297002827222
-0.5925499404381835
-0.8272139247142918
-1.0430698697456329
-1.1638706115231305
-1.251662726691049
-1.325629544631171
-1.3893458612652763
-1.4462993380635916
-0.8535520847246141
0.1828977050506937
1.3000778357527896
2.086260902280577
2.158154133949061
1.7593486678452068
1.2942111146936974
0.8607036483492505
0.5547046718176732
0.4347708037369801
0.4754239580243118
0.4998698012485497
0.39544740872349565
0.17523186555208925
-0.12597165027601204
-0.4645054444930673
-0.7654754166543114
-1.0055078063430245
-1.1768973819683042
-1.3070206610176103
-1.4290289086991073
-1.5510371563805776
-1.7106046769411143
-1.5685375642235908
-0.9906152092883138
0.42922794201888315
1.626375399673145
2.055478649218132
1.8163677813780579
1.4431932686158244
0.7757747266433328
0.38379525879788706
0.08489859595249373
0.09131925991867067
0.268771883673225
0.2626808499039832
0.09880682258625817
-0.20178541150459145
-0.6965954752088288
-1.1429994082396648
-1.479293791498702
-1.731123867713328
-1.863502818647824
-1.918702650853851
-1.9206454666661672
-1.8935639
-1.8847723449925986
-1.724749246210603
-0.8854647735031859
0.530174028314268
1.9581827602400155
2.5884341477177397
2.3541463356954893
1.8529123276331203
1.2425161455772171
0.7016832145670135
0.42000061505612
0.46772008924691205
0.6178817070853864
0.6342539605635666
0.4080190204777409
0.07115580961234802
-0.3510540190650495
-0.7239355781813859
-1.0562167789259387
-1.329638223517354
-1.487875411768094
-1.5741174364084192
-1.6310561405675872
-1.6763399501001197
-1.6303204832852767
-0.8869311791933823
0.4491685735498233
1.8991128641656019
2.493546569411472
2.3485166210921826
1.8776456538909059
1.3139798570210184
0.8672216419889781
0.5594172242270407
0.5121283920506119
0.5823321056963613
0.6173873084362123
0.46741293315922827
0.1744355684075813
-0.15365531089800805
-0.5254771930037205
-0.8098206462932512
-1.077424158313161
-1.2466252130963462
-1.399638636022437
-1.5222827805038808
-1.6882140006447266
-1.7936428465074978
-1.2420598301933008
-0.04707261250880279
1.400665226449889
2.214570248358916
2.1128696862176364
1.7063372280015217
1.0269027814706377
0.442883447189015
0.06764421322982556
0.02533174921161066
0.17366528258800948
0.2686095920297365
0.17111933880095648
-0.07398126345732231
-0.3866509748784549
-0.9024470556768948
-1.2650580458732703
-1.5511243442263414
-1.7711150096005517
-1.856117418409636
-1.9564379024538523
-2.0044245348329306
-1.9170837357712829
-1.0214711718136922
0.9920441196348775
2.0081872658140463
2.406806689575057
2.29028303504344
1.7817839288344868
1.1771222222616486
0.6954303637339836
0.37702158219726994
0.4362937367921418
0.6252740953675617
0.5849629497950296
0.39789989005485193
0.04130883560465251
-0.2985715748311314
-0.6825456123653505
-0.9470434813609113
-1.1071708150209014
-1.1941580745116163
-1.248549542911565
-1.215249636177917
-0.7944658296403759
0.2154445479283681
1.4050184825792305
2.1826688702576935
2.2503377423910402
1.938434724939932
1.4688426947793294
1.0286502565032456
0.6712855165759919
0.5076782102180615
0.5993710833529916
0.6349034483049061
0.5336266511335617
0.3055860928520592
0.001601929046099848
-0.3237696934748342
-0.5839215488100733
-0.7901004340823383
-0.9723282222274563
-1.0292816990257516
-1.077162750748289
-1.1220140533761136
-1.1701973433295436
-0.7359372842846681
0.0763610105280301
1.4009858699643816
2.009222651607239
2.1643958015811093
1.8467710589449293
1.3707098736794936
1.0448908639890884
0.6377767951125295
0.5009912724177356
0.5138258377231409
0.5243197767484771
0.42622155354594954
0.19973780088432552
-0.036896634213999024
-0.3305158813250048
-0.6317593126686795
-0.9487122384864869
-1.0521222996280688
-1.1824146
-1.1824146
-1.2449336713403383
-1.3441705622015636
-1.2752644479243456
-0.8665995922712373
0.4328543691749893
1.3764980238935143
1.8983423541244713
1.7748177460357368
1.3991304258471287
0.8589246438255393
0.4781870396359278
0.33609913153970966
0.3515404852978757
0.4778400377492083
0.4871271176283852
0.33368571461689545
0.08440850869313553
-0.13166039579634115
-0.35687595314566756
-0.5886824362525626
-0.7095649243635892
-0.7491317219321015
-0.7797576522529923
-0.8299718058547836
-0.8797609202421006
-0.6758163541726951
-0.045377086614171
1.0281322029480484
1.620543563595928
1.6860162346431946
1.4294380919080152
1.0712285421863759
0.7121576394290822
0.33455220883937353
0.22923531357105298
0.26216339125913307
0.32905996389032294
0.2802566565826202
0.037893300581553754
-0.24625985374841752
-0.5276446706221076
-0.7732249927430012
-0.968678936724024
-1.0720371530906898
-1.1332984066457823
-1.1752225406890537
-1.1925231049451914
-1.2488638329264972
-1.3065738905819144
-0.9565991946287409
-0.10771013653616945
0.9502132845517939
1.7179897013073184
1.886347983552039
1.6345667162992552
1.1441998008260161
0.7965003369975272
0.40444449726538356
0.28118845441037027
0.295772759782984
0.31454276974542833
0.22099767590738476
0.037985287832519754
-0.32550896092297066
-0.614122043071767
-0.8841054056342181
-1.163310855642958
-1.3015706080755152
-1.4211448770528654
-1.4707826584033281
-1.5049449611660541
-1.6173751282388473
-1.6702290825889914
-1.1429054081623629
-0.12388109440201533
1.0037950430454234
1.8292126372113988
1.8780159856946665
1.4752824728571625
0.9826357360881959
0.519184856501634
0.17335651445217365
0.08275753234329154
0.2340812248581685
0.3372723187846044
0.23257442780155704
0.02646652293691093
-0.23309909015601318
-0.5840180470594633
-0.8160498454969836
-0.9973900674070908
-1.0572949518119892
-1.0825390855629742
-1.130091762461586
-1.162643606193819
-0.7730293601013951
-0.03292756045059839
1.1592783093500734
1.792636625162474
1.9564654571705342
1.6441242739310622
1.216940194040709
0.591766771139781
0.35621768085704
0.23872540265198613
0.29897340966217223
0.39319224010052134
0.34069314318185523
0.13904666419452122
-0.16173796837082516
-0.46899279841099695
-0.7195197815480047
-0.8920009044341989
-1.0023925621566259
-1.0638896999999998
-1.1028427385683672
-1.1647685012338507
-1.0835143186858884
-0.636320695674985
0.2637148302184591
1.4278678371679803
1.966560848228601
2.0160702775229637
1.6945428133392637
1.265564794483748
0.8848566858097416
0.6114569980572332
0.47693388
0.47693388
0.46879892644450105
0.333151035159995
0.0923210835422818
-0.2092063607419773
-0.5248860430458395
-0.8186900634889588
-1.0712593549467229
-1.1893041383668888
-1.2740200798198489
-1.3065718412009406
-1.4005088310962015
-1.4987565969205128
-1.445740259297283
-0.8497169466693216
0.7340632950781976
1.4839361719818618
1.9117107704098928
1.6399524728048531
1.2754971099662895
0.7427560823311267
0.28380227572314226
0.15364385855107138
0.1749728444486736
0.29170401117551653
0.3300914135703466
0.19683111408910572
-0.046305349330322224
-0.3473652185105057
-0.5889655869130925
-0.8164772456531516
-0.9362555099162394
-0.9865686933532309
-1.0234209153095002
-1.0834990051810012
-1.1301026874610036
-1.0071511775017032
-0.37989620790763323
0.5936480113747096
1.5163964197467998
1.8422774899488263
1.6916149427550917
1.2876154259324701
0.8539227408013277
0.4939312616264703
0.30248711970457665
0.3283815837284179
0.40455236615646634
0.37080442601410996
0.23864410572695036
-0.01299984957465002
-0.3463206442469335
-0.5655074112094106
-0.7903675495184397
-0.9173793093645936
-1.0191737392003966
-1.0592356374422778
-1.0813282037334104
-1.1359555829943788
-1.241573760914007
-0.9325024617273308
-0.13359593251676194
0.8826610318437096
1.7726381045717288
2.0409629232670268
1.739992951105718
1.3679857219045384
0.971234464216806
0.6433911818908098
0.46223030180281505
0.43782865226652
0.46863197434056897
0.3807802860304745
0.13645572317557242
-0.08588632040996494
-0.46536052694280117
-0.8172172905112451
-0.9880288702058361
-1.1549950051393616
-1.2266318090904897
-1.241677
-1.2837371499644206
-1.3842242105805198
-1.5579415949673803
-1.5289581630095752
-0.8403216197475515
0.21835166111159
1.7201848310154333
2.0465279131163903
1.8948484598548208
1.329381164017813
0.995891889376194
0.6211696754788651
0.38593162613012616
0.3190214919896894
0.36782479265110696
0.41662809995881167
0.25957141938586137
-0.044608599490235525
-0.22651182039498982
-0.5957952141254014
-0.8234919117166875
-0.9745290182017405
-1.0769244859820906
-1.1526649426422335
-1.1855279145648838
-1.234331180697015
-1.2469610698592488
-0.8739973129888517
-0.06409491297036729
1.1469329179283632
1.9177236499700325
1.8608189250507456
1.449458864108823
1.093126806816105
0.6433871673627589
0.2454331992011898
0.2082157412166965
0.3010958210641712
0.40484714175038794
0.3152248674208593
0.10322674654466085
-0.21156085177550144
-0.498336155481816
-0.7487340616964251
-0.9636928892189532
-1.073073658746537
-1.1477512157703484
-1.2032483247301817
-1.2435762204317626
-1.2841424688288063
-1.2882396462300285
-0.7419972123161358
0.20767690459772664
1.2930599452586113
2.1409457133640344
2.1719835178529205
1.7067695861938972
1.32233462868455
0.8715157158895995
0.5461440859569467
0.4647189882270244
0.4819496955093303
0.4737966809915577
0.3222929145540466
-0.038815367090147976
-0.2849780636525106
-0.6914377151705786
-1.0684098732915073
-1.3242982451808938
-1.508818877303625
-1.5904916770404165
-1.5972517
-1.6574521822646715
-1.7903415013455533
-1.7438366626831938
-0.9633540191047992
0.06552312187504539
1.1961476179940533
2.1059337409209204
1.985723159101819
1.5490707038056928
0.7664032557218752
0.40567331820945657
0.049203704154833376
0.10205767991625689
0.3302345806043492
0.395289384427989
0.238036605323258
0.01842174055572235
-0.31053678586623235
-0.6234250331877126
-0.8724970788104869
-1.067196778462376
-1.1836391567849984
-1.2218976889803297
-1.2493777917739983
-1.2900309295910937
-1.0689932558105837
-0.28961146355438694
0.7761273069922852
1.7160830196268142
2.059588902621547
1.7499203180165799
1.255289830253641
0.7634812967921055
0.3773082941496469
0.1688534956118749
0.24835407411632412
0.3670117672897354
0.34353545200311947
0.1800004587993883
-0.16845784065720548
-0.49665619379669756
-0.8212924315239966
-1.1226300415583932
-1.2824846730369497
-1.3602019
-1.3774588435731532
-1.4257324816132209
-1.4248397900717495
-1.1968200852124453
-0.4698013000894309
0.7633117634153481
1.689853816222736
2.264955275968437
2.0429885254111535
1.571206957085061
1.0865052518517497
0.7020488905769662
0.47750433636641376
0.4353452326043127
0.4988511125273896
0.44225227377704696
0.24910782441250795
-0.11854125374362023
-0.45998658994808994
-0.9292834629322508
-1.2897884678064262
-1.3890249398305077
-1.5004233661274313
-1.5379893
-1.5379893
-1.5682969766770842
-1.651081110172928
-1.4973648416733887
-0.6989957815497396
0.6539535796283343
1.8877360906215301
2.2855002656482384
1.9793757748837197
1.339669345873518
0.8381955187040957
0.37982896790544896
0.24214125646522133
0.3421121063174126
0.4817916398046173
0.511501411916329
0.33567006014194756
0.03507179894111484
-0.2799780516979742
-0.5662400253670387
-0.7610679520017903
-0.9333630114679877
-1.0084887727437153
-1.0638896999999998
-1.0673597314697219
-1.112373185993807
-0.9847637097214398
-0.19517504978078154
0.9503172327130823
1.889162649002545
2.169590516353509
1.8697180481208397
1.3867703203419615
0.8448603290545572
0.5353927951726589
0.3822189274540616
0.4321964105696591
0.5384896159281766
0.5211900025995507
0.306824858681983
0.013317684191737301
-0.27135198522282133
-0.5693583219152414
-0.7966213180326389
-0.9502104304580224
-1.0470033557307203
-1.0632548604817649
-1.0638896999999998
-1.1105344280582827
-1.1224503765764684
-0.8800601226875266
-0.11587833103966184
0.9480952843788011
1.8040613567842856
2.1737259065813985
1.8982636695188972
1.4154448011270684
0.9138319163782811
0.7074020811320801
0.4527063186278076
0.47861061706104896
0.502431274941717
0.39738471517629564
0.1871903066003331
-0.10961462629697206
-0.4724808053466092
-0.839455824465352
-1.0765052212896726
-1.2649276621104715
-1.3830353869000487
-1.453784017922666
-1.501817307281621
-1.5853165281135524
-1.6602170265977105
-1.3124123915902963
-0.48637500521725285
0.680234336128011
1.7926219605783604
1.9796850614941117
1.6873582291636753
1.1990728784203875
0.4880553322908105
0.1620797824687212
0.03655172556289031
0.13924183294319925
0.30190324314711603
0.30432568465711607
0.1162696606142618
-0.18252918060480053
-0.4975163942012024
-0.7545457069396765
-0.9291987905861869
-1.0232567014025165
-1.0587210759125565
-1.075514354201423
-1.1073796036385655
-1.1398826131406408
-0.6999568835270263
0.10478729824067223
1.0717825839399377
2.0378614566665463
2.073323804922649
1.7515478487648406
1.2789627654236304
0.7714264253051353
0.4216531458361129
0.34392686941366823
0.40542361128889337
0.4635125755036041
0.41426866364321846
0.20145488160213276
-0.16680836021229112
-0.545727068574399
-0.7897435804075259
-1.0218131352471607
-1.1586826921640911
-1.2042108641151594
-1.2563699794180416
-1.3121927137983938
-1.2938525522607909
-1.0030758769543273
0.053173999879162714
1.1701012331121619
1.8499452792916558
1.9939088475307176
1.7256089973554511
1.2766186030650266
0.8443712657452189
0.4323908350716258
0.3424905477043022
0.3919469877577477
0.4478706462434091
0.32631866935517195
0.048752042928499356
-0.26012048822103123
-0.6513167756320362
-0.9459785173402628
-1.2401357871006442
-1.3617926474619024
-1.4048555388803852
-1.4490858951846786
-1.496245052158279
-1.5570809186941414
-1.397345226942131
-0.6934155162767813
0.5474820328800352
1.7170951799142102
2.0507739710094235
1.8935249363466584
1.4713316444287057
0.9588969958006016
0.44646231436285244
0.2230611771197869
0.2324746753216381
0.39306136767288324
0.45745401072098163
0.31283886323459853
-0.000564542923007083
-0.23877114576645983
-0.5797407920411277
-0.7510852729691567
-0.8772580628033958
-0.88610236
-0.88610236
-0.9410772706222135
-0.9602095442874657
-0.6404221692108215
0.04850823282646055
1.078701296680261
1.8822763595101606
1.9912654130059448
1.6809791984140776
1.1984085130265172
0.7229584016874766
0.44334050628800986
0.29992401733111
0.4107265110254726
0.4936921210958985
0.44471866196333093
0.2484264256837504
-0.014020299770451244
-0.32357027188006837
-0.5634929248056998
-0.7373022542355636
-0.88610236
-0.88610236
-0.8901351124013782
-0.9415764832975256
-0.9919902990464069
-0.7172307314621521
-0.16935555197242624
1.0255809888547611
1.7213736490877516
1.8865419309989797
1.6986768724541395
1.17676251243124
0.8592711478893295
0.5091074432794638
0.3211912710177704
0.3307985084312731
0.33464734883830705
0.23985722207254678
-0.0033165285625506302
-0.23716785328406859
-0.6424640790305143
-0.8992672338601981
-1.1546015353842007
-1.2799172126716867
-1.3607367900020562
-1.4013899278191513
-1.4485538226319286
-1.5106018586467092
-1.4225600431962941
-0.9236876911449531
0.1276133415482894
1.1844512721381375
1.692750374820159
1.6381781176291215
1.2888243270599462
0.6266405304068131
0.1596963241381092
0.018190722896724396
0.05547598097051637
0.21694805997363448
0.2671620827637168
0.13297656871603308
-0.10510951766813761
-0.37494428912859606
-0.6730516001193163
-0.8926664706514323
-1.032160818704156
-1.1231521
-1.1341181293699218
-1.1688089367064862
-1.1146096857042231
-0.6014668370331944
0.3530702798839938
1.2076714162992963
1.8177173805845406
1.7195059027223791
1.3239649810069256
0.8638854251038899
0.469661028653246
0.19591227745993312
0.2666860157420873
0.31465729780826246
0.05599979131224708
-0.1303197437259363
-0.31321774939792557
-0.49611575506995426
-0.6783689416511819
-0.8573306496606945
-1.0590936863872895
-1.1841720614590268
-1.2167238228401187
-1.2539181477934367
-1.2488013050475084
-0.9961955801569946
-0.005788373071104275
0.9471371719031887
1.7975030797416531
2.007161665719771
1.7468935832546453
1.3265467348504751
0.9430991490456248
0.5658675441729863
0.42294358884987604
0.42686910052925514
0.47451041629060764
0.40745278244546773
0.21300150555682182
-0.04482703397549807
-0.33128038415056843
-0.6372847410610308
-0.8813012611293591
-1.0906306990307906
-1.2683704390860755
-1.3001472389199278
-1.3881655715185666
-1.4343315029434418
-1.1646253399531485
-0.4468404504326071
0.6428445672192669
1.5480296551137842
1.7901288896916945
1.4550366011715103
0.9330367335098639
0.4976479859734937
0.24827139996524772
0.07441372821263302
0.15249901578740616
0.2520860349559944
0.24467624877054667
0.078078385777305
-0.3010498773674942
-0.620806007382616
-0.9592390271878749
-1.3150032049695433
-1.4023296945390618
-1.5013221897563582
-1.5471890726617885
-1.5540556304298103
-1.4066736697204731
-0.4921659062546473
0.3087735318978453
1.484854557567774
1.9336173120790623
1.779090867475505
1.3339522720747135
0.7462144669542358
0.28617935515050125
0.08373075567000969
0.13309421785587755
0.2974251760283288
0.3252130049129232
0.11777819208505783
-0.16270291646336027
-0.5288110450896957
-0.8329219517478975
-1.0674110075405494
-1.2130436739938337
-1.2906940952221604
-1.3464283973110864
-1.403333039879251
-1.1904167470844458
-0.559263131497791
0.4422388103406239
1.5637583926516014
2.0639921920675492
1.9206301506571077
1.534972511780893
1.0515797324989156
0.4804179406965752
0.32822698012829987
0.3526622293727693
0.4758809350434319
0.46792483328544776
0.2895254351629901
-0.0036031124339814292
-0.28945103103872893
-0.6904665762469654
-0.9360113078922689
-1.0539931759075805
-1.1308780914315864
-1.1878315682298897
-1.2609545992595497
-1.3227256061004407
-0.9036266848498455
0.01620672972040947
1.1747044769232449
1.8099062102947188
1.765122474445947
1.439343566612885
0.9025072109334978
0.4537800740739389
0.15097032594563115
0.026313057114456136
0.05838735880380481
0.16088726
0.05099485064777941
