0.50655296
0.9826976967572841
0.9030690998635258
0.6954632728190592
0.475251779693974
0.22273061825047377
0.09272311933625643
0.005932708927642329
-0.04299131
-0.06055447787375782
-0.1310111917781647
-0.26155853201970525
-0.3844706264416399
-0.5127493688298717
-0.5672525153989496
-0.46054495156993586
-0.05273524644887331
0.5110142793834405
0.9280055130534433
1.0112360508562188
0.8946649011434604
0.7077611005578752
0.483410585405703
0.283002083950195
0.1803468976878127
0.11894340700184482
0.05534368368133723
-0.010824450168932185
-0.08430269960789008
-0.22259761642761797
-0.28567462519812187
-0.3918262017697668
-0.48328951300999423
-0.5555572271954634
-0.5993918837960757
-0.5467177248914081
-0.21199980156077874
0.33718982331079683
0.7945100641708736
0.9875228937375001
0.9232831500530393
0.7465598849406088
0.5424862945316644
0.3545163893433467
0.19056627338034612
0.06615505690431725
-0.020034687205716963
-0.1189623963743148
-0.2977423900707974
-0.3957133827856865
-0.5791759983141109
-0.6936017623865962
-0.785132496755337
-0.8887088421233433
-0.9755994448003074
-1.0127440311045188
-0.9525489347813022
-0.48718668670030546
0.1784000175187441
0.5539228615213808
0.7383509094122707
1.201327526185199
0.8744216041096312
0.4759443926206235
0.0331268810880194
-0.08739660297295421
-0.21405130594599792
-0.32084785377348957
-0.4756739361759291
-0.6641013753806165
-0.9049111349143356
-1.1389598999409452
-1.3472486815993001
-1.4855029257209544
-1.6075334979850662
-1.6943180608108246
-1.4777225362750248
-0.8582619252495673
0.21015374240091983
1.1904468860580937
1.4933451363032275
1.3544322300662524
0.9751113951171317
0.5355893327509619
0.2009711571061211
-0.04858443933203123
-0.08841781427375241
-0.19935215586713795
-0.3280383058607237
-0.5261525668023284
-0.7153703057619731
-0.9087911691035669
-1.0660575517835484
-1.2214275192481099
-1.3713896476761447
-1.3559852351124768
-0.9033616780111167
-0.06317690733058612
0.9622136403657765
1.6762256721806779
1.7626158385788784
1.498248350796263
1.0704675904853649
0.6607013830043436
0.348813934979449
0.13953455049306834
0.010378762499125366
-0.099235671710944
-0.3116828805430518
-0.577626667448229
-0.8155629441025317
-1.0603603451226244
-1.2964922510378614
-1.4786057186701382
-1.610717227094558
-1.3472936533550617
-0.5277663864319608
0.44839852479735676
1.2176485437880467
1.425538787729049
1.1856197879980794
0.8522007580554695
0.46386217314213335
0.12378191061668276
-0.05580377391304531
-0.1535750227124526
-0.2509009182819568
-0.4146233411700495
-0.5800736709068648
-0.7873995721747602
-1.031477633870177
-1.231314149251957
-1.4157728204899898
-1.402843656688184
-0.8258598220656609
0.09190086158339394
1.0618933889635243
1.4220726580128715
1.3450591875926488
1.010840561872822
0.6479459739270198
0.3172900777833659
0.08878510093074912
-0.02709358249731006
-0.07588065817110456
-0.2523317870566995
-0.3880953829677434
-0.6034038912420103
-0.8299597392568838
-1.0008719456686193
-1.2016654945997662
-1.3284494150118904
-1.1670972306240723
-0.3832902567330051
0.8020517230064574
1.3245800676442787
1.4357486000000002
1.1578806265206312
0.8631357246307092
0.531379482786928
0.07540616817205993
-0.05523815984683536
-0.18584390243996188
-0.3135174237475974
-0.4798458870683958
-0.6531983851012865
-0.8466488118886961
-1.11107975988524
-1.2799707681930361
-1.4664061377971502
-1.4623403353075677
-0.9186379357969182
0.02026713605051922
1.0590109461605717
1.3498949939225668
1.2377493573820333
0.972394872706444
0.515485514359405
0.2175067173825176
-0.07674198647558837
-0.21508165821462522
-0.3734517783158146
-0.5188948122411943
-0.6743071430070421
-0.8976971027722668
-1.08913899306048
-1.3388826489256855
-1.5234556227107772
-1.6748729362738846
-1.6017840862417696
-1.0351687785395884
0.06973687311908325
0.9317134200164399
1.2280539281955163
1.0744993245303258
0.7498028792653925
0.4216000291565657
0.12517911502273166
-0.09464760674996338
-0.25593961138631344
-0.3903447107450742
-0.5310765521488008
-0.7387542362363234
-0.9564259242982233
-1.115807244755707
-1.3220518835355348
-1.482101145936173
-1.5974035682352417
-1.5954740946633565
-1.1729581327461631
-0.22775238329670794
0.7162748277625501
1.270482761759717
1.2310895340623693
0.9502900679461213
0.6152837267319591
0.325963268084795
0.08439566339012387
-0.1108962330585134
-0.23528323718951857
-0.3656388494308518
-0.5253723185853286
-0.7018206592013307
-0.8584637013629617
-1.031786951212386
-1.2118017485916348
-1.3389551628545044
-1.408068830012681
-1.4929606483784859
-1.5529838281494552
-1.6889343754408774
-1.7766365321109558
-1.828441008360167
-1.6721824785560144
-0.8479269390760472
0.3883332825400727
1.4433019192641054
1.8824408618852402
1.754022228340791
1.408224262709458
1.00494596852004
0.6967717507742249
0.4126558473870899
0.18705025204789455
0.0770399007962565
-0.05507437613584669
-0.261793664194679
-0.472882361944984
-0.6713739058752101
-0.9308114529718625
-1.0932332218902605
-1.2364951632352323
-1.393268416896805
-1.5335205925470297
-1.6523194718479262
-1.7308045109010908
-1.6182344467411656
-0.9740175010965794
0.11416202405094478
1.0250465458067173
1.51996132650901
1.4835074253084157
1.2215494610320237
0.849696836824501
0.4554186356960502
0.21646152942875502
0.06847513752471125
-0.06300407362023927
-0.2045176855423743
-0.39765055521954223
-0.5934054843772966
-0.8009877512132236
-0.9979562963145138
-1.133716107772123
-1.2490776194782809
-1.338868061021689
-1.304047679324276
-0.830628108098451
0.10490739473414507
1.0072585671143348
1.4961207999766821
1.4859447018873915
1.244596104295522
0.8970336573435093
0.5444840764858538
0.31082694278513395
0.1726653925729486
0.04808111160100609
-0.0526282101534842
-0.20601540735049512
-0.39557666263702973
-0.5774136169637687
-0.7355913147124199
-0.9082568568948179
-1.016442317035286
-1.1083884497956074
-1.091021813894557
-0.7183018971954365
0.16239231152811595
1.1531926106850983
1.7185152467344844
1.872300801624285
1.6537940022894326
1.311532491175151
0.9688304324538064
0.6412617921326248
0.3954979891640046
0.21048955430332283
0.05409534865468306
-0.08760334243432621
-0.3170494944184122
-0.5752907359156139
-0.8330842760503311
-1.0483041534530761
-1.2672900395598963
-1.21772421143602
-0.6136272325719776
0.23673842781749949
1.3225194367088982
1.7200594778086362
1.6978077438564634
1.4462206732835476
1.0959163159034047
0.7108471470788732
0.3877444264090243
0.22037730587764562
0.05653130441390561
-0.1422748658912335
-0.3416879645942749
-0.5090441174696342
-0.8051591145368429
-1.0661152799668234
-1.0206271991657738
-0.9751391183647243
-0.9296510375636747
-0.5730690636150266
0.5560190366602871
1.3994949661115204
1.8669170031881672
1.7688344566220606
1.4055044775393426
1.1903181500853304
0.7073235359501396
0.43333717958457274
0.30439680959655513
0.14629264322110896
0.04962029571247134
-0.12806842540668853
-0.3267666066267526
-0.5349136077521459
-0.7731830573950861
-0.9206160525218381
-1.0538062075187136
-1.1076666773332589
-0.7401276197145638
0.16421214742611967
1.3545839797321846
1.99646901050968
2.1112350305471264
1.8312289777712163
1.4827820192103232
1.0992762684420891
0.6532084569503436
0.4100207077373695
0.10813426035367849
-0.05577743446975322
-0.35830258270834375
-0.6359034128736876
-0.9202721242936884
-1.1727665925123425
-1.4208714232932778
-1.5520082968718412
-1.7022814559719437
-1.6655423132755613
-1.082404244853095
-0.12600009608816026
1.0122539062920872
1.524043738570904
1.4476316060585939
1.1727972072859887
0.7443299981829675
0.3769697750382361
0.10906555774138547
-0.057844737877978954
-0.15951331144069827
-0.33677387028455297
-0.532512733245883
-0.7454907108676458
-0.9826107525248735
-1.1686612225837658
-1.369858773503248
-1.522028613253856
-1.5303042531109667
-1.0833067939746828
-0.09764562861577887
0.9337274242758932
1.5018418584864444
1.5123570661217005
1.1764635353304338
0.8192076637309086
0.40274152878491665
0.1741262031483669
-0.0005176353566600997
-0.06889235939087526
-0.2044119146265112
-0.38492093823803863
-0.5719121843824626
-0.7623398526627925
-0.9616090263287647
-1.1248776960656985
-1.2370261860964173
-1.0860532994465055
-0.48560149160409294
0.5777214815525141
1.6655007153053585
1.9444299892553785
1.8112836670067682
1.528829060188314
1.1472036641560948
0.7579175816969427
0.4405398023373568
0.2611373520952289
0.10420456292622236
-0.08138648342536837
-0.23854661394411952
-0.45769561912727347
-0.6567494787088055
-0.9112810821816216
-1.0996219786126098
-1.2727096413736725
-1.2378368596715579
-0.6546072772562503
0.29968023639029845
1.2448628808185767
1.7247932716912717
1.7153337553326837
1.4271777499755094
1.0380621579961893
0.6519042203684634
0.3292320822347484
0.12728540126609053
-0.057063868191916486
-0.21280722436540578
-0.46385791413630084
-0.7045890552865837
-0.9242908458880271
-1.122832755744988
-1.2906739933822444
-1.405879184236036
-1.1747650816191646
-0.4732199560774516
0.45237425294498324
1.276873072675695
1.5282299879640988
1.3447948497207323
0.9926914326067353
0.6325859490104326
0.3000742819139488
0.05244531996542659
-0.08096696590938146
-0.19542312108368068
-0.33522645026483844
-0.5396183860921132
-0.7518725521865003
-0.9377227889027667
-1.1194963293900642
-1.3619949932427309
-1.402799938428692
-1.0871081701467844
-0.04661896831708197
0.5412070288288646
1.4742697068960597
1.4991385709781202
1.274506052465282
0.9215568219935312
0.5597468671902566
0.26595205055866755
0.06114262066217695
-0.08663866233673714
-0.24814042700237748
-0.44667268922880343
-0.6416843323822539
-0.8703355337056093
-1.067405535167777
-1.2523870863975484
-1.1198351949355176
-0.8074210297089708
-0.49500686448238984
-0.18259269925584287
0.23282201203554082
1.0093083647349583
1.684275237275094
1.6328305444058857
1.328889019704228
0.8342661678156602
0.6033485244222951
0.21283616566642738
0.012335207969451575
-0.10543718764450338
-0.27362505859542063
-0.47743506135660696
-0.6795311656277455
-0.9090391193780584
-1.1064218113659698
-1.2618148539179481
-1.4353790433588394
-1.5890219517774404
-1.704510144253371
-1.8131314954835045
-1.5719659120881102
-0.833662306462463
0.35093670052542814
1.2716211136149045
1.552127589355499
1.3734357664191714
1.0303534183253786
0.6657608794817138
0.2817895749231564
0.051461233427295
-0.09149937861710251
-0.22694258800645306
-0.39720992043493386
-0.6075656129894307
-0.8676127164992742
-1.086938290499053
-1.26436995744799
-1.4741066646708076
-1.5815220309975888
-1.3644997795351956
-0.5501768759788329
0.30768064264386213
1.1453676958611263
1.3553297862182208
1.174509864105498
0.752522325913944
0.42385717953628366
0.02540301974664544
-0.09485139901841941
-0.185845736104509
-0.27539510053190613
-0.4665646400015408
-0.608806883558236
-0.8242271520381614
-1.008898531977937
-1.2305337542339096
-1.2072824994961213
-0.5529335557774495
0.3018876765980044
1.4576387160292321
1.6617612526305032
1.5350430577386585
1.206845436318444
0.8377330563298979
0.43865147769696866
0.1428054895392032
-0.009181949646025755
-0.10469958333699257
-0.28058810295201253
-0.4591130323165031
-0.6489913590956345
-0.9016981622180334
-1.096326650723247
-1.1922406735993125
-0.702385710024847
0.47441658483125526
1.2156138534104322
1.818167256866401
1.724262066641109
1.4066449826416547
1.0286744140614656
0.6475923903486132
0.313727148866946
0.07148042275793372
-0.035922970172108874
-0.13391833612167436
-0.32891220281135963
-0.5617377072152302
-0.7744262835060998
-0.9753348504272811
-1.1416286160807287
-1.1521330190076509
-0.5813089393396971
0.34045679897492165
1.4308867496927105
1.8878098447137879
1.8555508328291606
1.4927042285068555
1.0657352989127116
0.691446366062552
0.3691969531953868
0.17878765748415018
0.057877624201086574
-0.08470415493502187
-0.27778189310809104
-0.48317130061693875
-0.6853518321340477
-0.8557001512629616
-0.8404166279295333
-0.3308469281041537
0.42489374385734124
1.423870351743966
1.725963962773273
1.6168866522333114
1.2383696458248878
0.910685023333274
0.5024888554664635
0.23610134095412308
0.0677682957793451
-0.06843283176135845
-0.2528679409898506
-0.44246222239226607
-0.7116269736779266
-0.8683805701930902
-1.0459736670353013
-1.1751279231676026
-1.0497428531516624
-0.2554145562020964
0.6129959309142973
1.6300914184165798
1.7911184073882378
1.5968869187504362
1.311539128737868
0.862295811718205
0.502420919532439
0.2155431063384896
0.01395547645688805
-0.09954925690053044
-0.2511442778425596
-0.48316983567931915
-0.6893169662832092
-0.8804339616686657
-1.137161990046578
-1.3196341994879806
-1.236639931551089
-0.5467322376338735
0.3814171531068463
1.2539575519609167
1.673669167074574
1.5666158260438705
1.2571991905244209
0.803228317618971
0.4314582005041827
0.149084568413279
-0.06618443343556045
-0.2330261918467203
-0.415865808039221
-0.6204234088809937
-0.824707830863074
-0.9736206586660237
-1.1733311348313156
-1.350573818809932
-1.4925667294080893
-1.2982217674362948
-0.6009575280888121
0.39673796718916127
1.2769665260267402
1.6249250764396646
1.4354893385070757
1.066871284960508
0.6930490225591825
0.3531778126878427
0.09358086206901405
-0.041808092271610406
-0.1443979369028062
-0.3280308826543989
-0.5150695893936413
-0.7066154918661054
-0.9092251875061602
-1.111415983384956
-1.1301289464829418
-0.751556308132262
0.0894926529545006
0.9822885925101064
1.5093441919609556
1.4583347302477287
1.1616794399413317
0.7778807780446991
0.36919462490985566
0.05862847458091941
-0.08800438490586682
-0.23360703394700696
-0.417892676811035
-0.5974045869255981
-0.8165344247211059
-1.0100733897406302
-1.2393932065544304
-1.4057551316060815
-1.4056340142607493
-0.9380848851294205
-0.030735668740876965
1.0890570551061027
1.7143190359781482
1.6957463304769163
1.4188219673697553
1.0049994958129624
0.6239571780673283
0.27917727949757126
0.044566247764350475
-0.05722452325803634
-0.2107318785898113
-0.40199224676211165
-0.5883977649602559
-0.7722371625331661
-1.026555947180938
-1.2032119312617704
-0.8832569256720089
-0.04920902929623905
0.9672806821773443
1.679638596372975
1.8085035713218145
1.586812102699348
1.1839680496527114
0.797941335778386
0.446518914445892
0.1242848375608
-0.046968411044594746
-0.2524193092467516
-0.47836492323500057
-0.7401853601369146
-0.9690369985834046
-1.214448471471305
-1.433765772192516
-1.3884465120452332
-0.7009321836390021
0.4391993062195493
1.416332510638265
1.7813806885857744
1.5608942852809253
1.2451162358698529
0.7453535206439108
0.3024410306768068
0.0628996102080325
-0.06757702592940139
-0.22200649884419743
-0.4003797549677993
-0.6720668314025733
-0.8193874527204763
-0.9996800293199672
-1.218919953930423
-0.9910936268406045
-0.14948551610898786
0.7982107559968712
1.6898307809502104
1.6955037
1.4567201257464961
0.9653900675474384
0.6864608015741234
0.2555298909062205
0.11675397098226464
-0.03089272700812422
-0.22673987705397522
-0.39240137659777113
-0.5916254044198858
-0.8573943459755131
-0.9880386625545532
-0.872065695333082
-0.08821795335613268
0.736354966234244
1.7694128146452055
1.9724071041120141
1.7720807438118729
1.3918307095352205
0.9901496207917133
0.5475660552767562
0.29315129299270615
0.07701868256411326
-0.08265878837160343
-0.2585855749985247
-0.4302634468733267
-0.6658278563872578
-0.9303804617324629
-1.0776467612038738
-0.7395878818176947
-0.008871183380619652
1.3221859801096172
1.848196985048881
2.0041480486577927
1.8278002290857343
1.3995620004605058
1.0525977234688042
0.6472513759722813
0.3464158567558655
0.14049111302554096
-0.00979395873651039
-0.15911892764828026
-0.3959148371416439
-0.6392369203131917
-0.8775710142275163
-1.0228503292390159
-0.9038077716304345
-0.08741543344550673
0.9366439630368448
1.5955963586871915
1.7752124392300983
1.5736464871261546
1.2193343162246295
0.8032365018173524
0.419620190143649
0.11697561488684398
-0.10092229254635923
-0.2723715396029846
-0.5090146678153623
-0.7521033628299334
-1.0149767353146002
-1.360850766401279
-1.3618496
-0.812437958616554
-0.01984231132258696
0.7202087705620291
1.1333417743123446
1.031123821290061
0.6703926352127982
0.1813955854665415
0.0064683633474603985
-0.2786332196569591
-0.3956042352348308
-0.5723933828492719
-0.7061869602792166
-0.8630309987759889
-1.0289416423523232
-1.1986818115883224
-1.169552465442915
-0.6611060373829072
0.20458503022815142
0.9855680012412515
1.369449235004241
1.2839658398638423
0.9895940568603749
0.5907666753518024
0.2525414408493128
0.023352107331078703
-0.10386307297075836
-0.23748278684510798
-0.4043200046195671
-0.5918259238538232
-0.7685483178006571
-0.9095405471539926
-0.8881836998476706
-0.3783901533714047
0.4730859730238247
1.2677358151245424
1.6104080355705275
1.4212706692553851
1.1332316939665144
0.7086743502148752
0.33265543158788646
0.07451957892893438
-0.09341998194994207
-0.22601840790603844
-0.3886041792314453
-0.6041403795468219
-0.861060679878673
-1.084506086625646
-1.0327228873699084
-0.41338316158251925
0.14052325008926467
1.1271545991411447
1.554392935456648
1.5078453830131417
1.1829917981536486
0.7370267608669527
0.3106610307627513
0.016475588101791352
-0.13597531237516375
-0.2981683671268328
-0.4864964117193054
-0.6696591785737469
-0.8490557070467206
-1.02792762876487
-1.1478420030434793
-0.9405155019299622
-0.21450661137944071
0.6755533898215381
1.3515985251657767
1.573929415163543
1.366011408721912
0.9916981380799187
0.522818865215186
0.12155810137546849
-0.13404194511128295
-0.3244825731412788
-0.45428533454218817
-0.645956006531436
-0.8374088225536692
-1.0550130123682273
-1.2018656440641333
-1.0084081455779155
-0.3480780361066975
0.5331523120100715
1.0642208101162411
1.1399244638426447
0.9178673794145862
0.5587187770666784
0.16264527906964454
-0.14438921055781734
-0.29849558883810734
-0.41654358733108404
-0.5331597859685571
-0.6546517054354672
-0.7805656314917977
-0.9503951713881609
-1.0171176535076385
-0.6018197461704747
0.22692870476331928
1.10296949847024
1.4497281891222895
1.40140756674091
1.113348360633898
0.7011175113702527
0.28672456174476063
0.017022113971520175
-0.13388089111266646
-0.2849876521988701
-0.36539415488992427
-0.48059564217899253
-0.6622433157846288
-0.8736076845404748
-0.8514805760169565
-0.3554774549533296
0.36380491747595345
1.2648054380150322
1.5075018695438054
1.3994376770990993
1.1208689110682535
0.7441652744582883
0.4700947104205287
0.1978119376457984
0.014292225867606756
-0.07979176610018193
-0.190994466804478
-0.3690759812257378
-0.5743898743090595
-0.7369446594674566
-0.8675353430544228
-0.5544359200531883
0.2065211282672459
0.9147618099993495
1.4944422535679154
1.420316797783574
1.1178181632516293
0.768157675155106
0.24626547435508878
-0.015421478007732692
-0.26402852325779874
-0.5168852165102343
-0.6982789087773367
-0.9657563721829994
-1.2277528720927393
-1.577625797174757
-1.6652782912947532
-1.3961795662121639
-0.7266947488446097
0.08905375030045848
0.5966625859571285
0.6965101419714759
0.4441122189168895
0.06954459094728022
-0.27078210165237526
-0.5392234708175622
-0.7249146401881432
-0.860080216060819
-1.000276257437703
-1.152301903909719
-1.341714134544854
-1.5283774421036227
-1.480558267088016
-0.9191542968386384
-0.14009417170018224
0.5137466520123215
0.7556854506838157
0.5434312764180901
0.23311281813211693
-0.03360686339206581
-0.2652539024962871
-0.5002254774432756
-0.5917528288449165
-0.6835747367560179
-0.816548711264449
-0.9840945887393525
-1.152261767255452
-1.1303179941896082
-0.5767190548615877
0.12575411199035078
0.8850293561929414
1.0960782764701495
0.8582982379538693
0.6053050503390713
0.14520225421690242
-0.12072349717055653
-0.30843567184168424
-0.5063142227430383
-0.5567254073829334
-0.6349802318110561
-0.7299377346717675
-0.850410913683814
-0.8269028742582362
-0.37810004373504513
0.37349462932017385
1.1797638074792096
1.4069482282871864
1.2454312119700037
0.9108465574544756
0.6074833510352368
0.28815025045711173
0.026285875478615505
-0.10732329425810501
-0.2550928432143122
-0.39184113029858036
-0.6165006165554894
-0.8796199162315487
-1.0724552169330248
-0.9628174789641591
-0.37453682294163215
0.4801054786318778
0.9868244399412971
1.0296642542003878
0.7085005620226947
0.3443523449055297
-0.09795166970284618
-0.35220556227495925
-0.5381054348652591
-0.7133939748175305
-0.8183151768851724
-0.9685537083498937
-1.1380765976529539
-1.298312102786743
-1.2084728208391895
-0.7346202999017789
0.054396140502295465
0.6856156584150966
0.8238270393464461
0.6323754935082478
0.28698379892209336
-0.0639319952357736
-0.36951088893688405
-0.595395012556062
-0.7395525079788949
-0.7992159109936365
-0.9103827614335412
-1.0223380455171955
-1.1531132275447444
-1.0088159290705188
-0.46688116860439444
0.48639484987838943
0.9873588810471566
1.1730096968980905
0.9972825885316523
0.5870648708139238
0.2353686952903617
-0.03113351638245837
-0.20344677154196744
-0.31228643963839064
-0.4141457224216963
-0.5601460817623107
-0.721711945663948
-0.7813862990212508
-0.600069790945162
0.016047217800940983
0.7962484013063937
1.3183798957376522
1.3352343383627583
1.0550676127932752
0.6960831992701915
0.30891797066836624
0.032460378446075355
-0.11587472458345252
-0.23617642601782746
-0.3529330938409675
-0.5000641428352133
-0.6833185535006703
-0.8365852527319895
-0.7585281924885796
-0.26811688102572295
0.543446179122439
1.2026749414834006
1.3379892636769775
1.1240371634699036
0.7456088874406063
0.333698850295835
0.033523182045592126
-0.1953455299722198
-0.3949803036218489
-0.5449530138196766
-0.7169325116089597
-0.8836996260685654
-1.0376173156918391
-1.1689973993156935
-0.9115732380236089
-0.24800423145023953
0.6496245165619341
1.2598703644986262
1.252654836805177
0.944676726442468
0.48822379697214296
0.08644727395428148
-0.23269141535335486
-0.43805658090448774
-0.6007167843821014
-0.7353105291189935
-0.9086026490875572
-1.078840904018984
-1.2845005470497726
-1.286620495984339
-0.8822635865364812
-0.10382611479835202
0.7022205745276003
0.9812027993740506
0.7882918085482027
0.3949285378863224
0.028233408280109173
-0.29140719931851483
-0.5574559006356428
-0.6468812503365398
-0.7498109750515515
-0.8148361591897011
-0.9188445126560417
-1.0527316356511374
-0.9762988324706955
-0.49019230408778386
0.23537199250965535
1.01785900915771
1.1436542127505325
0.9541285185699144
0.5661108553815326
0.16751243352927853
-0.15153498356610262
-0.36494111303922294
-0.45353308245442525
-0.515011317620792
-0.610136218616846
-0.7592959309479139
-0.9341909086878241
-0.9312140068809276
-0.3742930650927446
0.46123593971761057
1.1442996145558268
1.3384566370290751
1.1297979351751812
0.7625586063761146
0.3439510087653528
0.05903332057856861
-0.09404305702790161
-0.2491801381283081
-0.33897562639054357
-0.5019511921593727
-0.6521897236240407
-0.8682630467359084
-0.9121132320598617
-0.6450807629892845
0.1035213441278261
1.1697133748962771
1.430953012834057
1.4181196838251178
1.0792877131211154
0.6552750505276812
0.17779520389981085
-0.09650645859595655
-0.3082032550985474
-0.5041242997781663
-0.6429002213363857
-0.8508924850124572
-1.0923945790470975
-1.3601983181122723
-1.4642667349386538
-0.9900439744742674
-0.05833995947155006
0.6397034085641862
0.9985900390139755
0.8234384290744725
0.35302251558427855
0.010124016568274441
-0.3808034077262026
-0.5601253259998558
-0.7605316083377897
-0.8625684117135971
-1.005485179691562
-1.1961193602122346
-1.41068618833604
-1.5373042101883958
-1.1740426809928812
-0.36403648224243806
0.44671083187043065
0.919558340911575
0.8701611309667231
0.4348331181011341
0.03291134795192175
-0.26261817012144417
-0.5251939453470725
-0.635411316236923
-0.724815756311179
-0.8159593155520343
-0.9496445734519624
-1.05168132779985
-1.1310942933348864
-0.9676961305881051
-0.024969139217860786
0.7726834054418313
1.5151647837037172
1.555309657377798
1.1641974248328661
0.7776749712023068
0.26320208271146217
-0.04204259922696117
-0.21381500115150293
-0.35502823685365503
-0.48085563763880707
-0.6539001996853423
-0.8482357689586141
-1.0583619791435646
-1.0492956619246803
-0.513609105434156
0.31004143322952027
1.0893034367644643
1.3436706116569939
1.1621664389522064
0.7898766421216599
0.1018320412857531
-0.2960829794505178
-0.6120531474111884
-0.7797806428263409
-0.8966931138091261
-1.0436805794587238
-1.2037204987081298
-1.3726066123171745
-1.5904401189384325
-1.5628783690937407
-0.992261080991313
0.08131266650958335
1.0118085720694165
1.3825518045223222
1.1685050897486142
0.7138745020674122
0.20586607760081546
-0.2422637777159075
-0.5480350309193438
-0.7288972054093864
-0.8796608568224875
-1.0380060894647372
-1.203633378743421
-1.3950708150834275
-1.5382840600956205
-1.5701635755347478
-1.1248433716663415
-0.2648781537239953
0.6356202817176277
1.1704416234902129
1.0807631926314485
0.6672450299093966
0.10883843457440262
-0.2977726158419408
-0.5638080718309669
-0.7390845676607165
-0.8487920025920935
-0.9914585748733291
-1.1818804004179126
-1.3619254073675802
-1.5012265390168082
-1.265112394402586
-0.5308183205455849
0.5464191943861562
1.2947096528117688
1.3623923658888586
1.0702389643358146
0.6073892363090171
0.22623435254566338
-0.12401057284584932
-0.31981999126909966
-0.4326299618496311
-0.5735697356241425
-0.7657306755348477
-0.9866403880943323
-1.1233732312879319
-0.9897093698901199
-0.2661300496226274
0.580316346429566
1.4616596033685973
1.7535789662529844
1.3841297704869298
0.8383244400674635
0.36393404350153885
0.028471436396203087
-0.2403406268732851
-0.371108558230733
-0.5300371108939991
-0.6818401789639442
-0.8390466196749725
-1.0676852666065573
-1.0150243032073027
-0.39024818875563505
0.6593214089767243
1.462249829461635
1.8440454394004064
1.6861272142634853
1.184173245151301
0.6583506370455015
0.18264713512698844
-0.10335688472902096
-0.3013854418594278
-0.5241947403816417
-0.719892683589164
-0.9834104362689624
-1.1962320018582195
-1.4195695894888583
-1.1065203807123905
-0.20211968219595156
0.781907641017566
1.5474409187672342
1.5464573052220718
1.0992415461100724
0.5438208103596927
-0.008692539409021038
-0.3507760426231011
-0.5890642103688414
-0.8012238618103293
-1.0241972621046211
-1.1982849593030036
-1.3980421579390112
-1.650817751164576
-1.7876640835956903
-1.3543295250044018
-0.2276553822442824
0.797733925367049
1.2670405015806607
1.0354776042263227
0.5652596234461229
0.008431875203590067
-0.4282686988399831
-0.6781503294317981
-0.872092179136319
-0.9974101152239472
-1.1124476155122511
-1.2447396895369849
-1.4349113062844896
-1.4127963095910356
-0.7916804452600953
0.1246192801575815
1.01227893162801
1.613478973947944
1.3469344655261972
0.8482335900855817
0.1590401345326723
-0.2364122957312004
-0.5006761752923736
-0.6952604370146535
-0.8179054193956952
-0.9769041902818414
-1.1407675892680371
-1.3219836246111545
-1.4781929482746001
-0.7638259721443437
0.36931569057380864
1.5876138091481202
2.079524494743276
1.8767392587370926
1.3440860890549478
0.7697244255914387
0.28476960954653996
-0.05874193508388136
-0.3059279379138708
-0.47028154543860756
-0.6294844208572853
-0.88936644410964
-1.2378872739489568
-1.4780837458117644
-1.2263887621506748
-0.09505503718680267
1.1122359857771396
2.029467112020833
2.0118237983794875
1.5132539605766624
0.8836801213487244
0.2804907565963975
-0.17078361943632114
-0.4534136835842164
-0.6421602885469828
-0.8784903919751611
-1.0768027887267213
-1.3139500964437045
-1.5709941075835558
-1.7635279413855314
-1.3085720262163991
-0.22703577890696566
1.16338593072849
1.944425340586722
1.825461452545094
1.2516595742319332
0.6111736758638591
0.019546067376173495
-0.7870852354906426
-0.932231702843672
-1.0773781701967013
-1.2225246375496992
-1.3680718047621554
-1.5232088450059524
-1.7889594529044885
-1.5866769960956253
-0.6701745877179857
0.6892043903325447
1.7509292958337737
1.6393671743221525
1.214207059574553
0.6844246888211019
0.1662818172741648
-0.2679424843926568
-0.4942674703344986
-0.6555888349315359
-0.7952286350655718
-0.9478408726114314
-1.1334500010814899
-1.4096057786745977
-1.2165408987902657
-0.4992531858117162
1.2270881537320677
1.9026427416841298
2.116683280965572
1.5792419540717448
1.1385711737573168
0.5291278671425803
0.12130390401757443
-0.152459365776961
-0.34078244130805585
-0.5632386623388813
-0.7708558317389805
-1.0055772682798358
-1.198152643981524
-1.1028757675127818
-0.17114511964087364
1.025031269125445
2.2089130237459464
2.429258245733038
2.0578600515690058
1.5089157499679569
0.8329414083787682
0.32082295622066187
-0.02523816400848436
-0.22757782917821312
-0.47421723800614773
-0.6856618893668348
-0.927336491520748
-1.1810177830680868
-1.3688281635187078
-0.7051383716302245
0.47512024790000196
1.5447895528493383
2.222518026606666
1.9004070899985772
1.2968034294306774
0.6577898437784803
-0.04677851532714747
-0.4264849665661539
-0.6785180531862697
-0.8786993858741535
-1.0906699014025398
-1.3288049502572925
-1.5754293063895628
-1.8037204397915627
-1.561786011894093
-0.5804141718432524
0.6812679462646153
1.6333998569902044
1.7695701658611749
1.3516501824871114
0.7110951220512174
0.09015820346095943
-0.30091278519840625
-0.5849598986830868
-0.7386886128571457
-0.9034822350962736
-1.1166141894622943
-1.3590670015678141
-1.5905254070219468
-1.4901736197829385
-0.6361956900895896
0.5502820401819524
1.5825275950806557
1.9106915938783402
1.6055948211897515
1.0510496093901187
0.4774435109709158
0.07277698871333077
-0.18419961331474977
-0.37009548594513386
-0.51681457349945
-0.689522577073667
-0.9370155237537564
-1.1613366433277283
-1.0392923408625196
-0.20276411116777615
0.8329242965883777
1.977282720550195
2.4069171285843423
2.144313289642258
1.56824670752644
0.8824419974874191
0.47050355405370625
0.09621744596050588
-0.09264660967134183
-0.23903517127387186
-0.4431135691077605
-0.6896869634629139
-0.9374401433273936
-1.1383349638396043
-0.735566751264269
0.19267931762515778
1.5226140035204994
2.3697140087909405
2.3689029115752174
2.01635910797781
1.4693236420736353
0.8622712449303086
0.4429062120368921
0.10509003453896465
-0.04867167272529688
-0.20852359872172532
-0.444919087821941
-0.6980887674543994
-1.0007467382652355
-1.1846068669719616
-0.753067968728522
0.4179084433525262
1.554355913662798
2.1849717746188575
2.075439546356046
1.635284220584028
1.019071607929368
0.35410628361408103
0.022914041128822227
-0.31473284661447626
-0.5153767525828037
-0.6558444673879388
-0.920703802631444
-1.1053977013229548
-1.4772977545096762
-1.6711955099502884
-1.4938755684410916
-0.7466745708609899
0.8691680210726564
1.655656071806338
1.808600154859666
1.344756122185498
0.857785492155389
0.16007775829064408
-0.17068750105722152
-0.4811182039258646
-0.5768497543433101
-0.6554908113811679
-0.8200161233669641
-1.0094430846028932
-1.2546852230875176
-1.2963586909000018
-0.8910069944979837
0.1056795115154025
1.3384975999125186
1.830473329236743
1.7163636510751494
1.2528591499071728
0.6911967590168214
0.16866843072153492
-0.06019867124588865
-0.2551936386987766
-0.43086565411980926
-0.5708172321665452
-0.816271630868763
-1.1275598420098538
-1.2745163310821936
-0.9758978543386829
0.03578080911112358
1.119052177020167
2.1491584205330194
2.23081725709728
1.7724574625433889
1.262175512423215
0.6297401970454493
0.22599098050907263
-0.0688219154761526
-0.22796434009782898
-0.3630919893449386
-0.5194892330360196
-0.7342330860183782
-1.0129506152500811
-1.2163731632292518
-1.0860284564954794
-0.209268491613251
0.9829384584958207
1.9746912650736976
2.2319514180171813
1.8559636012409428
1.3516839024589102
0.7401196097406932
0.30565319800729074
0.036621397160810795
-0.11928015501039257
-0.25606746814017717
-0.4525958845832654
-0.6552777676551428
-0.8876758722912813
-1.1454833821127808
-1.064484383220542
-0.3015791427258607
0.9026573011266183
1.979902055031347
2.2334821393082067
1.9573965010940615
1.3754769571335708
0.7783972731618709
0.2440834841253288
-0.061368014254166346
-0.23886634889947728
-0.42707478908680296
-0.5926428289698841
-0.8280310417227077
-1.1233925184308784
-1.4427261835669902
-1.4030079504767154
-0.7243327239960781
0.4024876766435568
1.418915596884814
1.7733064380864283
1.4736146298172244
0.917821749650791
0.36930117248708483
-0.07594543625196466
-0.309144756166676
-0.44004920639107137
-0.5707493025520024
-0.7441799373434127
-0.9452028490352354
-1.1838243553901715
-1.3602926891437206
-1.215085751712013
-0.30002631951127123
0.9266645000166346
1.7203675306438673
1.8638439955218211
1.538019850179333
1.0256849390939458
0.4905202257962399
0.11267718153256628
-0.18045802903958272
-0.3186803695944555
-0.4417775049602585
-0.609483246865963
-0.8488753950948683
-1.0689216481075854
-1.1620049528393193
-0.6371813541754286
0.3494061463185873
1.3804040766583068
1.9580856824691106
1.9388315979171582
1.376142507895183
0.8535697781641917
0.309096216913729
0.04609073279065645
-0.13074432327581903
-0.26591702283770025
-0.4522836350904179
-0.5939666000098636
-0.8431815692223582
-1.068673082717732
-1.2918451863153482
-0.9504468795155834
-0.054519425838943536
1.125833165791511
1.9577311369054784
1.9977361866107843
1.6346041787693735
1.0859115519218654
0.5064498444529144
0.16877803693835822
-0.12016582490043105
-0.3047326485128468
-0.4415371292432835
-0.6101404271941357
-0.8891175138580452
-1.1596727612528832
-1.461298161937645
-1.572491012026591
-1.2418964115433209
-0.13159109357896748
0.9709386515742272
1.5469245047900113
1.5733326677702446
1.198417158708494
0.6613599629622392
0.17968554402210013
-0.1726299623595134
-0.352072639007894
-0.4912717419356818
-0.6021094664979627
-0.7669054717296591
-0.9934810880044809
-1.1882894636537744
-1.412952272481455
-1.3125495599061858
-0.4824925481523
0.6855054238711386
1.5890554054781487
1.8741808765207049
1.6105073362982578
1.1494455626971851
0.6142714962774705
0.19359393272694586
0.01144530746260436
-0.039195751186959615
-0.12135701266974647
-0.26689694537416353
-0.4395499371178744
-0.6370936104740684
-0.8681957915088344
-1.0782715629629114
-0.6789304951705297
0.26694953475924965
1.4740190387036147
2.0974581845615727
2.075204919809609
1.6677556664965614
1.0087346485705626
0.5248055195663051
0.15062363338393808
-0.0068740268785275616
-0.12703853632153445
-0.2484003847465322
-0.42578066029376194
-0.6306682656592231
-0.8698653431516755
-1.1023557439983909
-1.2620605253065271
-0.945155874284012
-0.03322604825001535
1.082554823094716
1.9142801245683256
2.0555878576316147
1.7208535394603088
1.176262050834858
0.6819026721068727
0.16593937984800633
-0.017416536329980387
-0.17287016581739476
-0.3266488897062324
-0.5601244252762502
-0.8448005800228624
-1.053701392453227
-1.3790466015885965
-1.6323185014660837
-1.756667452875867
-1.1460985003440014
-0.10303446537108818
1.0914382610763367
1.708115375746816
1.6197715848845984
1.2550873584430144
0.5599376528462511
0.01279410437384989
-0.27215781666144956
-0.47237322562239176
-0.5626429200929183
-0.6733861615365538
-0.8500818444025795
-1.0664569402561181
-1.2672548236081445
-1.4618087261810997
-1.6012357544877291
-1.2572230324521751
-0.06867896182460304
1.0927246622322593
1.7319236602564794
1.6680853772179989
1.333367453887239
0.622221365035041
0.24013446893300527
-0.09325246289466838
-0.18090501923340369
-0.3391144680106401
-0.46975879276098353
-0.6430727781458397
-0.7945161192200783
-1.0842875603604736
-1.2815221617327321
-1.0788549573712318
-0.23071914148244682
0.9302071504301713
1.8292076806073119
1.9992871408272097
1.7334051085298885
1.2106453164367834
0.6347543547045841
0.2008249174306626
-0.052283156384588136
-0.22462796755802245
-0.4233465329863238
-0.5539908659080132
-0.8106111609589401
-1.1190028193579067
-1.3330882440698495
-1.492212631497986
-1.2068049344394618
-0.001043700696253702
1.1539798314758765
2.0430819152392976
2.0492836110087183
1.6684412105864732
1.1125110862580672
0.5273345082348903
0.15350490946128412
-0.1020065152020906
-0.2082303084005884
-0.43031902364838104
-0.6230542491144571
-0.8634384226645206
-1.1479474004275114
-1.4608593650989277
-1.6177186636043106
-1.3577867730321922
-0.24442696497176453
0.933905700805938
1.8775191225156442
1.9087377584337877
1.4814901217980538
0.9339647542249401
0.3845796346208542
0.008270050526285225
-0.16659989714338333
-0.27617437609303847
-0.4206023812980644
-0.5949325665304576
-0.7820636278697641
-1.032798745843022
-1.2830738167891858
-1.2822754768621647
-0.6974691872960066
0.45424449553979845
1.578096574796935
1.994374558756455
1.8412274880668713
1.337110080059932
0.862171702673964
0.4343221406030808
0.13076762083613633
-0.012203563082010083
-0.10766813237415088
-0.26433317091725944
-0.4713099576357606
-0.7078412818895358
-0.9862863070458721
-1.2564297698639508
-1.4752055170759764
-1.4975347750308357
-0.8989796734843362
0.37670674701182455
1.7258458478336816
2.3108706097624547
2.257726785935842
1.8412691188672907
1.2917047302770723
0.7535141622872719
0.34870045021253526
0.10497987968477523
-0.005046080077555921
-0.11348185069433925
-0.30809546331123405
-0.5459989963574994
-0.8222737448857034
-1.0751003716378564
-1.340780065185761
-1.337850531261865
-0.7629581107511361
0.3593161562265583
1.5495052665032891
2.1483288834927343
2.0105168380167515
1.6030887547086548
1.0300017735819815
0.5342350758938059
0.171543291665745
-0.040612167620133255
-0.15943677364467507
-0.31692821905390933
-0.5097948944011461
-0.7543043828977305
-1.0613335887872333
-1.3777576410156953
-1.5945385711898885
-1.8009507976496686
-1.723909145092382
-0.9682683803275145
0.3659653233495692
1.5564668050138726
1.8654971483643603
1.6741842911902802
1.2002396153608048
0.6378886050486101
0.2413150545276327
-0.015999152552283458
-0.08374111097661421
-0.18384843639258874
-0.3326963360544318
-0.548396869868454
-0.7953765865370748
-1.0513692144449873
-1.2616864398276295
-1.442111995868552
-1.1535828341180854
-0.2947154759306032
0.907439964244378
1.8237336913947781
1.9633969140647876
1.7069285568159742
1.1735315674711928
0.6728015988174296
0.35323605428637417
0.055154384887486196
-0.008683141448145582
-0.08121699791439405
-0.23335168180632254
-0.5007616945113467
-0.756616328687421
-0.9471816455446352
-1.1856137358608214
-1.2193314788344474
-0.7366545914072051
0.2160288886642786
1.6758392727775293
2.0990311433599333
2.1112086168856674
1.741633518247746
1.1880614822899846
0.6744552434920323
0.4090982424556713
0.14846959122007142
0.04886224192511164
-0.08854281839265725
-0.23143352295233838
-0.48531068961989515
-0.7232946440967261
-1.0487602578716124
-1.2256912293596292
-1.3451198200371208
-0.8589422379001657
0.32169866653653795
1.3338872296824584
2.1842956209889777
2.1230636892573034
1.666007658803219
1.2100453086504614
0.6752012609358905
0.3095508873766538
0.08870289513893193
-0.03125422122161457
-0.20197803167185732
-0.4197956699277731
-0.6733040066942294
-0.9606301632682069
-1.2266337263658258
-1.4372714179020776
-1.3377384734811633
-0.6464189158501363
0.4739883730674693
1.5960292799455997
1.9103303903366398
1.712943711331228
1.225299478967788
0.757460055979536
0.3097888277531636
0.05237888530831585
-0.05729692692187393
-0.1533833418619885
-0.2844317823902764
-0.532403923783513
-0.7980916529612748
-1.0375652333178291
-1.2272331454672822
-1.2298089740945846
-0.6163259181981339
0.39942648137061726
1.6216384119154565
2.1109524222193556
1.9743496887626568
1.6584820323586755
1.094161574485412
0.5701969937978087
0.25987554042830185
0.07141807693942656
-0.039670519047162275
-0.14856868297745301
-0.3782317528020268
-0.6263433406604129
-0.8932000814255926
-1.1188201131559157
-1.2331911466542789
-1.1073885890441528
-0.2027300906632737
0.7073608677260883
1.9312905017534387
2.1698562865630695
1.950886468790058
1.4756797755347224
0.9199474776970884
0.5276659614570917
0.18812752843730182
0.019517055511078796
-0.06767487995984368
-0.22724302783283207
-0.4836847721269557
-0.7192158299247936
-1.027383654887444
-1.2490660946722185
-1.386928759151561
-1.170988488408888
-0.3688003961635661
0.624371214049517
1.6230213648520382
1.8927617909693852
1.6336851930393743
1.1646314712332206
0.707956108333422
0.18366410588262472
-0.05049268369064562
-0.19947375747955676
-0.3492775651497627
-0.5708460562696052
-0.8005787390194307
-1.0651464579891854
-1.3000407701936767
-1.536818160958137
-1.6936818714464867
-1.514318195307307
-0.7907932853798119
0.2799124800163886
1.2180549596121484
1.4739410942847815
1.3107412589918521
0.8275440113132453
0.41369072662848017
