-1.4777437
-1.5660904240541687
-1.6579731040791998
-1.7229118268833983
-1.2899499733675959
-0.23981945119852688
0.6748521292559688
1.1316836397318397
0.8382395685886826
0.3026849303435071
-0.15232335058625324
-0.5071655841814641
-0.6906234575423824
-0.8000401492177212
-0.8501932065868656
-0.9566405611514329
-1.1266936114267252
-1.3217850528522825
-1.2960523279138259
-0.720923470058911
0.2755503859831673
1.0037738768742053
1.180381843783711
0.7948872117958851
0.19475149703801437
-0.32859689652036084
-0.6501291327331835
-0.768638755722772
-0.7928321445064612
-0.8371674633956293
-1.021631542701341
-1.1680250902798168
-1.1503016455130761
-0.5497015293342072
0.44479695716161904
1.1904909550385763
1.5068956309406243
1.1645859261257598
0.5327706928672876
0.15259398990422934
-0.22098355384455645
-0.42357340618810235
-0.47670264677278573
-0.5896739187143647
-0.7320343434589913
-0.8973210814604398
-0.9282433295934815
-0.5455646938747022
0.2805427539151979
1.1284117299292105
1.7373751567114257
1.5766558097526309
1.06311784298956
0.40978169753357613
0.11766594591221186
-0.16617590613729105
-0.28000838425843
-0.36583573234066374
-0.473104172946092
-0.6788960038967854
-0.7871506224657674
-0.5647050280953337
0.17515318984218375
1.171766441560997
1.73540331749365
1.790796986666123
1.4016499334364183
0.8982137054315573
0.41220264425186404
0.07167878181270056
-0.04091083214653719
-0.14021298317306222
-0.2925925737231273
-0.5558187803448953
-0.6977663131595098
-0.7498889787753517
-0.2235149026473762
0.5393400157227981
1.623859487420737
1.9578486537799789
1.7250655779417536
1.1711367361435312
0.6847612613388705
0.277471833762994
-0.0006267451774133216
-0.10387651274138071
-0.17491433414006125
-0.2951241741430161
-0.46068718671068326
-0.6683903592401428
-0.6678094092447555
-0.1307390407725575
0.7239274039319102
1.5141829504810542
1.831644097151704
1.4596831804144446
0.8163494045331867
0.4124454558560465
0.10154282866205439
-0.08294150305365991
-0.23116677456321752
-0.420210580350515
-0.6752203810766904
-0.9193598056914459
-1.119953817239859
-0.8914943852928008
-0.24854956552774643
0.6009763794766844
0.9824799082529148
0.9348129980586615
0.5316194505836063
0.02186189614866781
-0.29306257969354377
-0.5167399166428274
-0.5389341954000809
-0.6000144228921501
-0.7064617691081747
-0.9187797804045155
-1.1316744728365742
-1.089887171268644
-0.5660103287863006
0.4740570160971798
1.2445547302214868
1.3416326689617002
1.0342844711142314
0.6092258434132345
0.2285177349241042
-0.03757670945786249
-0.2320504246233253
-0.37077172442720424
-0.5247426548572056
-0.6808622647336086
-0.8663175899455422
-1.0014254134103162
-0.7878411356195275
-0.050153866991161256
0.9186938903823152
1.5491607407884511
1.4888292157448773
1.1630233256629818
0.8022079585544546
0.44823063280669717
0.14134360554919334
-0.02621026035560563
-0.13265760657163495
-0.22743688179787028
-0.3844198942084558
-0.6738111517380042
-0.8064592657417246
-0.5675345461016668
0.06984246944853723
1.0916698592305976
1.803369641168731
1.6263178503370623
1.3246992898498515
0.7380020361279483
0.3760810606631739
-0.00768528086070679
-0.18781827452952807
-0.2733467078629509
-0.329615532582962
-0.4921512626678003
-0.7276389191452934
-0.9402689124265664
-0.88904506521598
-0.3669769698550693
0.5945291862887422
1.3573841297045077
1.4652397177382177
1.1866870205486588
0.7247879969143015
0.24182201995155145
-0.12187307961988214
-0.33746035650659456
-0.43089098746656085
-0.5219869143959662
-0.6755889595837055
-0.9203044612322598
-1.0603530800873746
-0.7921261748743543
-0.19236566374105213
0.8450236438895431
1.4969842774342685
1.4381884173141433
0.9964867221895725
0.44150894049811207
0.0036235821507070165
-0.4345060769416901
-0.5972500693275351
-0.761590286813537
-0.8568264456679338
-1.077303724791692
-1.2415389396742842
-1.4415444253700416
-1.4660054532237852
-0.9103264222568292
0.08184683920520056
0.8807301089854528
1.1970017759823541
0.9521902426415585
0.5497501504126125
0.0847207588880673
-0.3126047456942481
-0.6075851493595013
-0.7397643455144854
-0.8176569464808735
-0.936177634942192
-1.1067750866480328
-1.3039686938202382
-1.4517464408498808
-1.2470524954535316
-0.36046102250823575
0.6671649412874747
1.1145178529486768
1.1137338891563913
0.7749825636694251
0.3455994407721549
-0.11569013903908532
-0.5182045238160498
-0.6929047619527764
-0.8244930841316505
-0.9111044709880931
-1.1345841500437703
-1.308214675725877
-1.553367916100249
-1.6949617718777663
-1.851834172942504
-1.5071624712946838
-0.5225516920502828
0.6285433160635316
1.2688876
1.1816370269974699
0.7907068557451868
0.2942906857400034
-0.1898423173039649
-0.547541259116887
-0.7812765228455856
-0.8837792957196198
-0.9756786980280181
-1.107585501460809
-1.2977613301515452
-1.5303514374299754
-1.7424754334495036
-1.7108580847555683
-0.9946761871419207
-0.12518653140620029
0.6239569832933404
0.7807915126392113
0.49056129235707163
0.07246548325539698
-0.3574862803420469
-0.7403414649262485
-0.9277813487984627
-0.9848942342468188
-1.0557000804700636
-1.2245456829245058
-1.428965156748565
-1.6112362543957484
-1.67810215285035
-1.1140457165712032
-0.20082421326530442
0.6424894313899465
1.0541661626954077
0.7734515040322745
0.16467518599137776
-0.5415092879269905
-0.9317984861925331
-1.2387498212479378
-1.2830851484856423
-1.2944982828490303
-1.336498042635867
-1.4429454055489643
-1.5721928927194229
-1.6545171493840727
-1.4255839582230183
-0.4871465396284316
0.3801272340932086
0.9656826393572574
0.8560750593254801
0.3633074492483073
-0.13778903835253117
-0.6739611779061279
-0.9866418379582098
-1.1696298
-1.1696298
-1.2365090352638792
-1.3554229998665186
-1.6101042417419686
-1.7519985776739369
-1.618857573850306
-0.8805440554491964
0.11245347281540385
0.9605618073151692
0.9525068132438792
0.5898027259956198
0.1375126602356278
-0.298008076443962
-0.6703931977123785
-0.8938881234702724
-0.9666271384947032
-0.9807585887969411
-1.1133063963371552
-1.3419147478991105
-1.5379103365603894
-1.551216236053183
-0.8996065160311157
0.01690510921711863
0.7409610794996286
0.9830967147483166
0.7663457671450502
0.28467523551004886
-0.21903576041443726
-0.6100261780387322
-0.8055817805225434
-0.85086939
-0.8743608313074436
-0.9802679617594924
-1.1576624759414833
-1.3463429722209952
-1.3022365959363102
-0.7003125624740847
0.288709281602751
0.8888335704744934
0.8786565871666792
0.4787928427548752
0.06389644271676176
-0.3207770605382035
-0.6348176137409488
-0.8202736509586184
-0.9001091564463771
-0.9593333742444091
-1.070752649727946
-1.2324721300691308
-1.379433301750001
-1.0244148963169701
-0.14995609571402657
0.5814833176904864
1.20171494779318
0.9934484393385371
0.6124518328819386
0.0621000856442121
-0.41945999586024063
-0.7359393876548102
-0.8619237265003131
-0.9366589186121567
-1.0525252284000672
-1.2492480023259505
-1.420350836953931
-1.4592041731591794
-1.0609436912951447
-0.15610433566633775
0.7413564735136768
1.1622974198289586
0.9452622336859524
0.5497093896095896
0.08111596380224015
-0.3010412373364959
-0.5626819400994075
-0.6707434324129703
-0.7404635095671245
-0.8034836824804384
-0.9460700226804333
-1.1553521436015917
-1.2209213526379425
-0.7824929567994844
0.14519525237186026
0.9470971719988683
1.1626262264265836
0.855034823176573
0.3976365917780128
-0.07971323710604505
-0.4589302020277094
-0.6863239791309781
-0.7871173
-0.7871173
-0.8370212468029834
-0.9614634172184224
-1.1601797142580905
-1.0995466180725924
-0.2568825979622351
0.6223956819799177
1.3917965996441006
1.4539086353195043
1.0199337944873488
0.5651540216741724
0.15675388372550472
-0.1537641732266639
-0.34734823640222356
-0.4742186239537673
-0.6113695628836416
-0.7894267511728543
-0.9718050722144678
-1.0851671911120064
-1.0208982989974236
-0.29350805910579203
0.5899422846014613
1.1723869243230514
1.231800582777797
0.8688505511049024
0.3632256440559699
-0.10017140449600598
-0.44763257657233596
-0.6198006522274946
-0.678721568383561
-0.7484924450824756
-0.9043617734702369
-1.0969460399473743
-1.2267842958775712
-1.0370227736252762
-0.40305616548592893
0.5600091193779143
1.2874170730777783
1.2350945546795271
0.8351296194377831
0.3357390656301148
-0.12957602327252965
-0.5091442343914594
-0.7509832865985239
-0.7819698775843456
-0.8207331135857973
-0.9346839750208936
-1.1112075839616435
-1.2590649289876115
-1.1348408576368099
-0.445034460578167
0.4923826778656542
1.12853875281124
1.215777029171012
0.8284921244184779
0.2518668441723465
-0.2237243774424317
-0.547343386021572
-0.6941952401177235
-0.7464948999631141
-0.8234466269516992
-0.941231884375553
-1.115948655883812
-1.1696298
-0.8288028852928653
-0.08912195462756978
0.7530588701308629
1.2320719698456921
0.9910154739581108
0.3846907669482771
-0.05318320393466977
-0.46391022542351157
-0.6629319743488007
-0.789362082754601
-0.8121950413480942
-0.9378999222889565
-1.1459739719676703
-1.3384701616929389
-1.4804176778104738
-1.241347704355041
-0.4522244876791831
0.5586444298063186
1.2347274692337233
1.239190118972901
0.868771854735009
0.40755844921066015
-0.04073106452511556
-0.3658897948074625
-0.6045172526408766
-0.7525622893391133
-0.8099160162749584
-0.904609424679312
-1.0512422495204437
-1.236321625356024
-1.2385767245830044
-0.7207421219429629
0.23209927362016636
1.0676490363257973
1.3506059905207304
1.0658814432760872
0.5910088816014661
0.10533007947212958
-0.3004951074480535
-0.672738729135862
-0.780052365238647
-0.8260145546643747
-0.9061673074032056
-1.0551907095400426
-1.2676826710384232
-1.4593545967665342
-1.379919021039536
-0.5792564253304404
0.5149175414928419
1.1414996581103112
0.9251718581722937
0.50214838405706
-0.05587850133973314
-0.5333468748124918
-0.7879517359196719
-0.9565099725025111
-0.9551709630647812
-0.9818350626675167
-1.1058667538353855
-1.3167858958774763
-1.4632459700093905
-1.1583686426780158
-0.3572350822498812
0.5318356719409253
1.1336628599037955
1.0065611383777486
0.6106267607804136
0.09811422825813876
-0.46016248335177934
-0.7400682232647766
-0.8961453341697271
-0.938093435325773
-1.005962503259209
-1.1381568791549286
-1.3660669211265108
-1.4374823362973737
-0.9960541019143608
-0.09581707960520702
0.9979781514494622
1.2303943947143783
0.9324252199316523
0.46040835988556617
-0.13780445220785997
-0.5825355423595426
-1.011510326261673
-1.0913458901891924
-1.1217335128083994
-1.2281808757214956
-1.3805632630068863
-1.5433427999408897
-1.554399347326616
-0.9490970026928686
0.12867942327520243
0.9976129030158003
1.2360437070589483
0.879030336861609
0.3978351518437939
-0.16630376374959932
-0.6374187956724069
-0.86025038472794
-0.9455221921021495
-1.0046675063885973
-1.0878688533226808
-1.2523178117921516
-1.4119353661425957
-1.143354482450009
-0.45900694112468854
0.4513332247983405
1.189385939835135
1.11462154672322
0.6732980899392766
0.16700880463572548
-0.2628596171219864
-0.5852212672809726
-0.7255036685347649
-0.7871173
-0.795349064588775
-0.9461317380424981
-1.1038780294462371
-1.0574742625534577
-0.4303910253379343
0.4663327890958042
1.3452834953884378
1.4301457556480623
0.9674468293478429
0.36618208097560423
-0.1244518674403474
-0.39014607402701496
-0.541869643112042
-0.6037210569897049
-0.7250455562224903
-0.8310586384770984
-0.9910948937965267
-1.0157840936534417
-0.4840904551873684
0.43865817098243076
1.2891327807251007
1.4450481976996328
1.0953085597656727
0.5278877597236242
0.07087041993718635
-0.29283999482127354
-0.5663253641219691
-0.6838257018508678
-0.7816372350999315
-0.9070900694296385
-1.0575695469110287
-1.142932587975023
-0.7734343544711526
0.0900553800196382
1.0551166289342968
1.4146401118244945
1.276111175878894
0.8069203709927505
0.17828658997013408
-0.16598982085851008
-0.4655760858773127
-0.5997602716380457
-0.6582746801842344
-0.740470629432551
-0.9460828558011813
-1.182311008368553
-1.132131688201841
-0.5343670484804334
0.4782557921430994
1.4633228018100983
1.6499623223130677
1.3729544075627682
0.8557825508345639
0.37535622373092525
0.05328693173379337
-0.08952903142578596
-0.18556094329088405
-0.29511834992968117
-0.45770405840345113
-0.668410711936542
-0.8757827673760291
-0.7701220616338036
-0.08408870506655619
0.8618059546558812
1.4399647789942376
1.4680704327260607
1.0759652226927736
0.5171166258387722
0.06565337516822889
-0.25539313575691874
-0.41764013238345987
-0.47611946673513295
-0.5327560580387294
-0.6214799177453236
-0.7810944887308465
-0.7500942179490783
-0.3276890735330029
0.46214064517877024
1.4599342542187372
1.737161085504569
1.4952455548086487
1.057562539821751
0.46804620288065135
0.07869357236053123
-0.16009455592335614
-0.20709012555509798
-0.31967973788437265
-0.4717349351126886
-0.697828650519597
-0.8090168091301679
-0.40308949144797057
0.24054170403308203
1.3156599233560589
1.8972697440729909
1.8812536207136834
1.539210442484885
1.046085552752429
0.4817811920091565
0.07371528697567098
-0.14632084593672387
-0.26252771841945705
-0.4114401974295017
-0.5285322799368426
-0.7508148696808572
-0.9064188180522945
-0.4076757434724476
0.7005137274292368
1.623360000254163
2.0578419356025437
1.8268061753315745
1.1961540415139718
0.7349176585854189
0.25887097737179315
-0.08715223300418452
-0.2877487209223425
-0.4088693246453272
-0.5629971113759765
-0.7936685205942519
-1.005056886170604
-0.9892515596427942
-0.5156778234955957
0.38634297200763484
1.3971670448476712
1.6543970144261657
1.3797278882310078
0.7957286025535497
0.3384626276877906
-0.10680537208238991
-0.34277907953536624
-0.44140337837494403
-0.4888359398803258
-0.5796470950850838
-0.7505122997618725
-0.7799129258496813
-0.42760824654570045
0.3662181477823052
1.3108169441433124
1.8366417536393684
1.6625935128465272
1.222721359291965
0.6868366421277657
0.21316309719527554
-0.1257746828537043
-0.31247506788279594
-0.4064012472190702
-0.5496276213495387
-0.7073253487600845
-0.8485121021045021
-0.781139333623165
-0.2592793654649912
0.8051941133922927
1.7196443211388033
1.8964931613309797
1.5578839809334477
1.0764812022657568
0.47554923445708974
0.16509554167932988
-0.09310169611016192
-0.3056817881886299
-0.36779381551549944
-0.6215736244911262
-0.8167448387622982
-0.9240252015888565
-0.6122865448133338
0.49678887840945674
1.376443462179369
1.7836876711678529
1.600316201378553
1.0920450764724539
0.6213621917881138
0.1390220441136476
-0.2186959842424617
-0.3998040939061581
-0.5092310221086278
-0.6120827422633034
-0.7965694025948707
-1.0473304074112941
-1.1174875802561193
-0.7022031165745876
0.2666969203312419
1.2278309275966963
1.6114289375456636
1.5106776732756373
1.0842827274634805
0.6097726435560257
0.12952279863335409
-0.21507941181717555
-0.3420916881664096
-0.42491798208668097
-0.5704341262086627
-0.8741180615450828
-1.090560204590214
-1.2644673301075902
-0.7531856405037474
0.32015272685659135
1.1939257419478742
1.708222596381946
1.428798289606437
0.8687420337845435
0.35480189926533867
-0.052248811654909764
-0.3112884346574981
-0.47944634399263075
-0.536401785000637
-0.6782062545205919
-0.8929167709976639
-1.0926282574154769
-1.0962577121638726
-0.49701040428202226
0.44413673473668996
1.254128555372831
1.5694824732225345
1.1549973188840021
0.6441992818988058
0.13319849183134458
-0.23571191971095545
-0.46670622027025044
-0.5762734197592322
-0.6392756845274875
-0.7654272353419361
-0.9895793673595946
-1.1260077311285208
-0.8691174653154138
-0.13119580696855015
1.077072409486176
1.7515918791110532
1.6106287429812607
1.0448724650047891
0.5822503390371683
0.02189562375461246
-0.20235935027870613
-0.3732150601036819
-0.48960661699241503
-0.6650431055844721
-0.8749064402651456
-1.0381821469724264
-1.0643440089882337
-0.5764425550545015
0.4230586764992845
1.2372018630925956
1.5567829450273338
1.332523044057496
0.8286817437484681
0.2831390821667167
-0.130455268511518
-0.5198490680596157
-0.6515270221753922
-0.8345306865830043
-0.9977063874821503
-1.1396539286452938
-1.3186149784022447
-1.1930949661504648
-0.4303669560374227
0.5756755821284503
1.35793037366773
1.3496772971036215
0.9869038957498885
0.5221894876219946
0.08881968265278162
-0.39179447434158965
-0.6773076208489622
-0.8124282726492309
-0.9447049098158284
-1.0638548588388093
-1.2398420821717449
-1.3108432955178877
-0.8792290111244745
0.1568127048621798
1.2052261055062432
1.6048312522462365
1.1766014740335242
0.5667893984255897
0.02719448440647329
-0.4073302840159309
-0.7829208693895883
-0.8955650854929686
-0.9403582582314175
-1.059366287635231
-1.2105217711939886
-1.3174652951876982
-0.9972391570701317
-0.09683003003786445
0.7473088839410558
1.146186864793597
0.9020055897425998
0.3185548270612657
-0.2674359394849203
-0.6755487852143561
-0.8293378670126155
-0.85086939
-0.8914523099925417
-0.9831839462265495
-1.1064801775355555
-1.1250195327308812
-0.7582825336163284
0.12079539122039751
1.0146217579218275
1.390627826971318
1.0508671123854016
0.5065217947356141
-0.007785866600148572
-0.4012338289478652
-0.6062984758183593
-0.6960461038731035
-0.7229798144541301
-0.8110911959970717
-0.9424457437145595
-0.9235439054830918
-0.37807742341246864
0.693116075410649
1.5500172132845615
1.7366598148418144
1.406152028681314
0.8565281608671824
0.30581842619070126
-0.13717901453875433
-0.39446224778822414
-0.5372569357089246
-0.626289611258644
-0.7527899592849192
-0.921330437732679
-1.0075984488308654
-0.6528094455124465
0.3062187637289585
1.2503255552790558
1.6592587921205675
1.4260642237222185
0.951052575110658
0.42194554180860916
-0.0628191213338548
-0.3626116283487735
-0.512990163891962
-0.556269879950433
-0.735060812700283
-0.9594503844135173
-1.0881708168306503
-0.8659874435578081
-0.11931706350895593
0.7832388648328444
1.8187705213439946
1.6915517135990783
1.2916879665556096
0.6456980859036104
0.12778200123099767
-0.23836874329410127
-0.38637044847976376
-0.45363030777805863
-0.54684286172458
-0.679601360761598
-0.8659589565730592
-1.0278456454862106
-1.0169950242248664
-0.24653291983164216
0.7447791943147073
1.701275069737112
1.6890340322197537
1.1292555116052978
0.6065115748801081
0.08270525893214715
-0.18218423789000013
-0.30955868558061556
-0.356826597750913
-0.42802300157722606
-0.5658035085551215
-0.7915683382991114
-0.8630918827011179
-0.4971135156362097
0.39315840718589784
1.4077648216997947
1.8596270294384787
1.6986337602543664
1.1364718700701655
0.10354767725708713
-0.179633195872908
-0.29312154430472953
-0.40660989273655107
-0.5200982411683606
-0.6425818725770027
-0.7853459290062907
-0.9777059578127238
-1.0018677469772177
-0.5028888366713048
0.43520083342668525
1.6590870313928623
1.9978984032838298
1.6836774220497392
1.1493147669915036
0.6567244635866227
0.11942866173979957
-0.08295672281248515
-0.3414282587316682
-0.4558886628169721
-0.5966994857951916
-0.7823837954569467
-0.9854271331715809
-0.965431163163055
-0.41631772066767536
0.5630228683584136
1.403866324060246
1.6774782573960156
1.4538095670841984
0.9680805952785476
0.36451784372971135
-0.012236414089644015
-0.34936785862957065
-0.5241682578085367
-0.6222490037478852
-0.7743581172187625
-0.995547210109835
-1.217645827698642
-1.2145106137862887
-0.6437803690260382
0.08696178899010398
0.051290759110582756
-0.05251274550871479
-0.1563162501280123
-0.26011975474730986
-0.3639232593666074
-0.46772676398588287
-0.5715302686051804
-0.675333773224478
-0.7791372778437755
-0.8829407824630732
-0.9867442870823707
-1.0145558597983648
-0.7278163086298287
0.15386075947184896
1.3839514312996546
1.7299053190243696
1.6767501228646182
1.107038772742501
0.6635259180660179
0.184959055834436
-0.1259488839594557
-0.2713359382072267
-0.353012460047471
-0.47139134628813933
-0.6168516432476853
-0.7569463381321071
-0.630516991670209
-0.07638300903246831
1.0147023189019757
1.756747166792153
1.8955210965625893
1.5842199638072405
1.0641635353533447
0.5506311970734071
0.17825937076446835
-0.000259132850865873
-0.16738961078358283
-0.3172362355053777
-0.5683936856368799
-0.8219466950968158
-0.9200898195326894
-0.4871367784299298
0.43850107703650104
1.7719014557761161
2.0335398587010824
1.802062242939782
1.3750269266092718
0.8731450928277463
0.4352599631254494
0.12496633302429272
-0.037641327832351024
-0.2308113667905044
-0.3283703587876897
-0.5894534035011908
-0.8653863413057198
-1.0625701484338475
-0.5746200889675681
0.5023959791794359
1.5393230859167593
2.0202673155724398
1.8764418275931454
1.4588113062227737
0.9341384029098128
0.45126720057524444
0.15853336099198828
-0.03843725974222976
-0.12403647277424837
-0.2840217532346888
-0.5468409687365944
-0.8096753861934202
-1.0197523969802618
-1.044140922989558
-0.2635092627877973
0.7601758498883082
1.4200547070323348
1.5360326257148975
1.1989670922087852
0.6846796902967807
0.19024336762100058
-0.14981233997524973
-0.364396541833944
-0.43880865280911235
-0.5354294729130219
-0.6906032561326887
-0.8615214671038162
-1.078024005773805
-0.9497571006903643
-0.07162603278247259
0.8104881003076331
1.633015413402168
1.7414033915151177
1.4052258054902083
0.9393491477142003
0.46559230441155497
0.11747677044932794
-0.06634094096548944
-0.17334893826344278
-0.25832927744044426
-0.42688865098330353
-0.6422343548237639
-0.8034804754276267
-0.6993411196810171
-0.04293354981421604
0.931159979254952
1.9830974108189037
1.9496457902131075
1.540409455952352
0.9777321890317179
0.4998745350382469
0.056738897911465414
-0.1807771801234118
-0.37202330095936603
-0.44910726756208474
-0.6295735271866567
-0.8228515051452082
-1.0591393004696534
-1.0631681781701598
-0.4425581359350173
0.7129659204338571
1.6575428758257493
1.9070945211949164
1.5542703324343377
1.0966900354430849
0.6097139498216531
0.1900726820395532
-0.06980243653016557
-0.29140536481578716
-0.40072581520262196
-0.49855127867966065
-0.7020236395661954
-1.0106197252910867
-1.200355433708773
-0.9614125449771513
-0.16828879825975018
0.8651489090100783
1.5525087758396838
1.5756561447099122
1.2102060318854684
0.6733474833159772
0.22602315502981318
-0.12380207885331845
-0.32328272669818087
-0.4488397189154056
-0.5349148018870701
-0.7042688746320366
-0.9073700000566329
-1.1338575949515093
-1.2442045930635586
-0.7010838461297011
0.3380860672652588
1.051643785254998
1.3874726318099657
1.0903248802677141
0.5181816012450451
0.056892019146391415
-0.3846444939839168
-0.5232123317860158
-0.6189203267521906
-0.6900317834506319
-0.8156376945176012
-1.0149997616949968
-1.1985756597757813
-1.1552959355675194
-0.5368730854293227
0.5346698859624647
1.260621518196167
1.4735162440223823
1.1808091275248291
0.6996157035846705
0.2189786966043062
-0.1625345010119183
-0.4176129472538045
-0.5506721341981136
-0.6691555948551038
-0.8341384036451855
-1.0565146881488199
-1.2516858857228819
-1.2327910183219823
-0.49822729103252994
0.4597988416088349
1.4150210181095269
1.4987174351838641
1.2192605731700064
0.7280492934219939
0.3681559273558764
-0.08992767385061046
-0.40071659845291474
-0.5262753647312742
-0.6905545305907399
-0.8342565354000038
-1.0256558976642869
-1.3137962191482158
-1.335962274595807
-0.8234189235193368
0.13285082704976758
1.0681305895925963
1.4451570044665718
1.3138013288847723
0.7485956168628102
0.31218333859779646
-0.19624450739850074
-0.3495251598867501
-0.548443165321249
-0.6735045724556395
-0.7988256570810197
-0.9786679218269848
-1.215062174576033
-1.3349384756164908
-1.0442011457102134
-0.09077397493692929
0.9426960401413942
1.523360988066352
1.45140554441019
0.9987538140676416
0.4615515371885511
0.004228045053145557
-0.315713505321803
-0.5120672063024774
-0.6001867811991185
-0.7612108420223298
-0.9901542854286888
-1.296158124153146
-1.399181183593343
-1.1164030700556702
-0.41918185410501463
0.5282419130374085
1.3155611225465589
1.2978376777798213
0.8047140282303081
0.17390909439591407
-0.06426610647388425
-0.3816789775595544
-0.4687090942778709
-0.54119031442424
-0.6422477735622032
-0.8067790771601828
-0.9930779694401706
-1.158867846792186
-0.8854736785287095
-0.07778474451629186
1.0253537979899192
1.5864922151995926
1.6008054839799637
1.1350255222165921
0.5530568391723731
0.08601488494337761
-0.22815013315658134
-0.4089053930402857
-0.5366720770549255
-0.6558176603946255
-0.8308465151611633
-1.0522233424845306
-1.2726335117033638
-1.216212194880209
-0.5909394552071607
0.41919719502768826
1.3984258079815324
1.4006351324652166
0.9257271235750633
0.3801844635214503
-0.09158316675129757
-0.5588018397756254
-0.7893672097500062
-0.8425908828580222
-0.936729526820675
-1.047594426659196
-1.2618749293618128
-1.4437402274431153
-1.394962477161185
-0.7518608462427581
0.4631284171527825
1.283677834272501
1.5010456611277385
1.1546741547013686
0.6384879112301134
0.08847446586836072
-0.31850149793352134
-0.551286742656923
-0.6572054985930321
-0.7233004085318381
-0.8572847522319957
-1.0846124178354701
-1.2827916944302225
-1.2139100566655863
-0.6649107320409903
0.27042879650872226
1.1818462676966475
1.3947409100374852
1.050286894030696
0.34258637093283173
-0.11511562340965949
-0.43553100692255997
-0.5624301122737668
-0.5654682263405592
-0.5585881657008318
-0.6382551139961742
-0.758913182576683
-0.8864914058841955
-0.5549166287813463
0.27803469020190585
1.201594966197189
1.7222185198709938
1.5979944485201925
1.0568317039949888
0.48833325762096697
0.027897198148411573
-0.2671016008550509
-0.408299403981901
-0.43491123636163453
-0.5533280474416533
-0.7406640857907245
-0.899290454807483
-0.8014033037848256
-0.20979083973261872
0.7600800909540381
1.789847000335717
1.8560806864073667
1.5473834007476566
0.9580590342893323
0.40393307834318287
0.1268493631832665
-0.12172980056948604
-0.23428178030378283
-0.3829093829857486
-0.5709338076804396
-0.771423255158623
-0.9564126049394059
-0.7139318815454366
0.1526515803371179
1.1634900764946323
1.8493608848748755
1.9649300525895739
1.6189761648646628
1.07402166722876
0.5875389869306143
0.20160168697872521
-0.055735089405700135
-0.18760117186878605
-0.31182522652248984
-0.5158116059001792
-0.789016693805177
-1.0076566809500265
-0.910997143865155
-0.27710057
0.6370013602496347
1.8501325502363253
1.9743034414015561
1.6702611334002457
1.1983304723761188
0.6617079387922999
0.2589423869283849
0.02832420464747537
-0.19331287528411312
-0.32441308376063377
-0.5478178127004731
-0.7884048705326315
-1.0482213186629048
-1.1923654994561441
-1.039820428701975
-0.34691926986888943
0.7263054305846288
1.5583074384896851
1.7470162001003717
1.438683295308528
0.9538698204538614
0.4974191992758874
0.07866847640194413
-0.11617210054307579
-0.22743921602704156
-0.33701942666624496
-0.5216259041014082
-0.7272414054395895
-0.9584081975060306
-1.0589310543969106
-0.472905638643518
0.655661730011219
1.662194607000531
1.94001775226692
1.643568900743913
1.1571400502046174
0.5338587149015318
0.16206502455203867
-0.013933753981512972
-0.1949318192552609
-0.3576740100519348
-0.5171735724176666
-0.7389566274170682
-0.9941245764499739
-1.0673096501388635
-0.6945470281214856
0.16992634939145038
1.2369871416075193
1.787985209756847
1.6721460806909918
1.3036899573256968
0.8143881073072569
0.31055559944398065
-0.10115255232247411
-0.3229355989733775
-0.45193439247142053
-0.5851729761265229
-0.8172156301372774
-1.0123868277113393
-1.2026239955845108
-0.9381197350938245
-0.2284884898316476
0.9907340871506951
1.8641250353412366
1.8459402262180047
1.4937965232363697
1.0329969173591749
0.5169649297248383
0.0955452405956693
-0.1540936457609089
-0.28081172734958004
-0.43176338439111167
-0.6065267198481061
-0.8377055438568293
-1.0674759846705852
-1.15014762454881
-0.8713094138939663
0.037928355409206804
1.0134438508623773
1.4602623236963752
1.3724041114029113
0.9501386670667396
0.45345382996724454
0.04647900700252389
-0.26550028330998054
-0.4514151932771988
-0.5705379940091944
-0.6966621922692084
-0.8745466031530011
-1.096329649803865
-1.2152019715925688
-0.9322287479192357
-0.17210737750624683
0.8562887245244148
1.558841236265548
1.4486308588589416
0.9399517739083284
0.5589551674516602
0.0507957701260838
-0.3291473787441991
-0.44168503633399026
-0.5194259490690589
-0.7181386476059513
-0.8635869566482934
-1.0743022084848415
-1.3200618377240168
-1.4572875013167825
-0.9819513439235631
-0.004046518486687356
1.072815095270588
1.646440044737221
1.496842557628602
1.022389197460788
0.6361969459096994
0.1682201764762326
-0.2510602552701963
-0.39871412938113543
-0.5013389621317313
-0.6586054020256327
-0.8602851071322234
-1.0767819975944108
-1.275301857815197
-1.372018757193342
-0.7209725366945932
0.22908651458029888
1.2134378340511383
1.6109026631344852
1.3822968959836501
0.8968166646691209
0.39263703196218747
-0.03798538418166075
-0.35959326181870205
-0.5614242696317103
-0.6478272312183111
-0.7712546734637578
-0.9710238083806783
-1.1485714858209035
-1.39858258096042
-1.4132436987238497
-0.882055369226188
0.06454653897095375
1.3214324919075844
1.5417005393399896
1.1896051266223868
0.7726248043512465
0.19166864832058
-0.21457001579908552
-0.5344671126798534
-0.6650381260587264
-0.7775916469362765
-0.8643213885041555
-1.0217574019748092
-1.2315662587422431
-1.379340523378197
-1.2222816045680642
-0.5321950142818173
0.44638963413982824
1.2761034178294688
1.3843574614537963
0.9632009546700605
0.43876110785599165
-0.004705892882127971
-0.3513847199895993
-0.5610403802320671
-0.6688036613242154
-0.7814804927190484
-0.9145396713148198
-1.1270112046491731
-1.3197186458698942
-1.360475132097843
-0.882360789018329
0.050885618367193075
0.9751344259666125
1.623982478975203
1.4081418030602746
0.8990414437578819
0.3878028948877339
-0.11502787310068818
-0.35165927658423235
-0.5160315859656803
-0.5990844844786232
-0.8008184199637696
-0.9359854674529519
-1.2075285846781048
-1.3893938827593364
-1.3624408860130948
-0.7474422007180397
0.23091272909587884
1.1603554032547005
1.5527196419087064
1.2634781126636219
0.7646317903190247
0.28161990483771027
-0.1285955884371429
-0.42338830737247446
-0.560806889573598
-0.6495307576287693
-0.8168489500488652
-1.0271455240637206
-1.2655064436232482
-1.602887480817683
-1.549541718355903
-0.9077499166610523
0.05181033299897059
1.221297912187916
1.3083476652041481
0.901405747397839
0.41488669461810324
-0.005111340711293599
-0.372183912589429
-0.42105589546908856
-0.2663986385979532
-0.12287702095700109
-0.23649708941507963
-0.4036952134067212
-0.6241960272291799
-0.7967596199442657
-0.3931596492669366
0.4769542240183058
1.3178882991977918
1.9079512363435167
1.5957900518406694
1.0373283733927772
0.4327400057610214
0.03655264153677081
-0.18471256472668157
-0.27798779871881735
-0.3615570767895795
-0.5003466738621463
-0.7104081009499437
-0.9323593413661098
-1.0548761
-0.7498335061733608
0.135081371800722
1.217731211072821
1.9226606442437746
1.8797764189123756
1.4505895553981463
0.87855853435909
0.3821074734618165
0.04598167243970279
-0.1358658789759084
-0.30542858454809196
-0.5078989687438477
-0.63123450288936
-0.8559939570746399
-1.084384620653034
-1.0024478143389186
-0.34954628704548674
0.785436527077372
1.5186363526174838
1.7297912438286918
1.3382489352469127
0.7408980861791998
0.3151087013150712
-0.04625628548894431
-0.34897737101228404
-0.4465363713579691
-0.5441113823425734
-0.6682822150680358
-0.9082991019301353
-1.0917998322635256
-1.3689678887650298
-1.1989915797161868
-0.3283839604447082
0.679233616633683
1.3004280676498907
1.2910180136254783
0.8290896197907577
0.3041278426826358
-0.1827885087685727
-0.47524871889618875
-0.630059572546757
-0.732143043845565
-0.8307334862397516
-0.980545743994084
-1.1503757431816821
-1.350966339704035
-1.3602170441868642
-0.7811157783440458
0.16469651626845727
0.9918306654816889
1.1482452727064743
0.8190054211403206
0.3115402387403104
-0.14311574664591406
-0.43217972294931933
-0.5270906063329317
-0.48478250670636147
-0.46835685
-0.6026364082590872
-0.7517024367316709
-0.9565576161987458
-0.8584856935343051
-0.2194214365500381
0.9175773677110118
1.6937382189678472
1.8454279892339596
1.6027419730592702
0.9325407337738345
0.47130437589084573
0.11882719658811086
-0.08012768413509097
-0.2207005901033045
-0.4128526684943659
-0.5889175930509372
-0.7828447718773064
-0.9442292495393363
-0.8573558642712191
-0.24463502206406246
0.8802992877990345
1.9788194053582056
2.2639948136487735
1.949507954084129
1.4841084548442136
0.9689737750032215
0.5163503637531491
0.19415772390728295
0.06703604252101857
-0.014622540503655024
-0.19745445485619156
-0.42035927844486976
-0.6864705210731854
-0.8544308664383785
-0.6099494846412676
0.22863806779376583
1.1016402784877184
1.9113286370056894
1.898506406934614
1.427069944814009
1.048349490358722
0.48278539349599714
0.061660124084554874
-0.17850026224915203
-0.3397643336023135
-0.5190414311957288
-0.720049934533965
-1.0004192805936492
-1.3024050708231607
-1.4591692995222965
-1.2022671683775141
-0.3101204374860734
0.8049127410699566
1.635332743684799
1.585351036599517
1.128059749071911
0.5162845830683247
0.04495340898272987
-0.2969164975101337
-0.4845700724656057
-0.5453401036315102
-0.6411863365855239
-0.8095641966858624
-1.008486774517911
-1.2178696054627653
-1.38989267638309
-1.234613148903829
-0.42645863402334183
0.6800771060234283
1.6217489764928454
1.8831553706121484
1.5911151290030339
0.9239866936172867
0.3761136709536367
-0.143320809091402
-0.3343615240286705
-0.4068804328282089
-0.4823597142284763
-0.643669567438458
-0.8608204440501842
-1.0573769650668947
-1.2404567443697747
-1.0425083068491394
-0.2527949396862491
0.9027152366603646
1.5967623033388672
1.6471016329631554
1.2269263323207478
0.6919795227341214
0.1507673908036548
-0.27302408943518985
-0.44506922384492115
-0.5166069768154322
-0.6349668280666807
-0.7941657761052255
-0.9744988107061247
-1.16382873404209
-1.0979617400838808
-0.3443901961766359
0.7008909125884508
1.6370018321667352
1.9370014921235665
1.6263410292796667
1.0732826289443915
0.5815172641197297
0.125041058047258
-0.09976425661465946
-0.19840568725232094
-0.27911578337314286
-0.472459288991005
-0.7485216504586069
-1.0218547896501229
-1.0275626238645825
-0.3001723961975252
0.8026703597513934
1.8732345698337332
2.126652993341559
1.8339227870732016
1.2996213244283843
0.7779371126061119
0.2224121964882137
0.10707649104425701
0.007619982080399407
-0.1344540322882029
-0.25161439459366036
-0.5290124485729035
-0.7785459019353932
-0.7227389206519773
-0.18990211068354193
0.8571550226625484
1.7941423990345702
2.0407458412371913
1.7067781905691632
1.2297161822176756
0.7424072661378477
0.3531525121135185
0.1456320561678487
0.060189842341294944
-0.0332765513769968
-0.20472629031106435
-0.4442328240941987
-0.6507643845919165
-0.3043707756061063
0.615423627962516
1.5916829115351963
2.155013687924684
2.1295947602013072
1.789936741925243
1.2310881283743347
0.8017269541116488
0.5330855905824656
0.3864086489621501
0.2940863388784477
0.13473812013975156
-0.03974244066679786
-0.2299773030172301
-0.3219351062616758
0.2599770606592966
1.6370738377206366
2.4775180749165657
2.7757256406686905
2.5914233672086433
2.2543578337025787
1.7236290331582
1.1985772425023422
0.8840578754930102
0.7507757631054948
0.5452043738849808
0.34748823094437625
0.07940847148670387
-0.1217250588360826
0.03922834377647541
0.7465598601130975
1.8246373620845588
2.6315175073618096
2.867891523448852
2.6802896563332683
2.3018972525666963
1.8177238518866445
1.3495583042029837
1.060060002600332
0.8316335162233309
0.5682869217519847
0.33014568777850095
0.04626754312431597
-0.2555305653118295
-0.42173094474728556
0.07157562714930604
1.2772506010448124
2.3978246823656626
2.920237868259362
2.792546719807754
2.4443470141976076
1.895865356273816
1.4078317649782257
1.0786870130164512
0.8961671202121289
0.7268547590531443
0.5203849159837136
0.2095987393684051
-0.09292100969998757
-0.31351266775682646
0.02152026465334439
0.8322639479427429
1.8887053304535377
2.5244479467971415
2.5904097546162568
2.1247578124258255
1.6274561552052964
1.1683384603579405
0.8230078759984447
0.6201300371663538
0.46471763918993125
0.27030946655463123
0.01739729847018459
-0.22808756949177286
-0.45693020583223576
-0.33034403953662705
0.4205543032155378
1.4745119760066228
2.519885604193509
2.6162189363167716
2.311090761594257
1.7262318152538643
1.180689175404646
0.7837411603437678
0.4982302896300158
0.34383952005014373
0.1355887249606434
-0.06064151135709596
-0.3309422148079161
-0.6576396146113523
-0.8839181140939859
-0.8397111169754756
-0.11325980142032357
1.0271424376652543
2.0597524154384095
2.539647220071723
2.2984954674011697
1.780002913630846
1.0390891056387672
0.7792500065704355
0.5194109075019933
0.32533273315048905
0.24847412754247664
0.2421573178282647
0.23584050811405277
0.22952369839984085
0.2232068886856303
0.21689007897141702
0.2105732692572051
0.2042564595429945
0.1979396498287826
0.19162284011457068
0.18530603040035876
0.17898922068614684
0.17267241097193492
0.166355601257723
0.16003879154351242
0.1537219818293005
0.14740517211508725
0.14108836240087666
0.08179918496533312
-0.07464854009191245
-0.48449100166592
-0.9387362893873885
-1.1871311851151143
-1.438684952181024
-1.7057203362566915
-1.8644356728925757
-1.8617614449871334
-1.1724079437615975
-0.25618859039279024
1.198684823591826
1.8953295093074296
1.8785051662433414
1.4785453610083898
1.052838059252797
0.4887399161269256
0.1428723294497729
-0.07353673798280061
-0.23699504644532188
-0.4508587056070457
-0.8285379339513991
-1.0479063616596147
-1.304982282492452
-1.5079748484453348
-1.4837035401781749
-0.9144880942095934
0.5191298077083678
1.3157779157836882
1.6935671508483523
1.475731833378314
1.0636409740985422
0.4447046882268415
-0.002409685337497025
-0.2351656559186398
-0.3542399447646811
-0.4997156830938173
-0.6493032197240054
-0.896223130049185
-1.1802455745809792
-1.3930424633771525
-1.453052155662164
-0.7259456912844171
0.3114526846546223
1.4134335885572678
1.835960486965048
1.7259659794865292
1.2646763746295817
0.8198297641176959
0.3536750587829436
-0.026513891163607056
-0.2562196860587107
-0.410913624685558
-0.6430062348682022
-0.8827600153155535
-1.1009771178447219
-1.3908985633285524
-1.433139269093754
-0.8543835018863233
0.29118404724007535
1.373288461006663
1.8144219139994748
1.7766242049680467
1.3837449038927692
0.8976112475033315
0.35740348242151765
0.037489077324835085
-0.243756917555387
-0.45437798295436316
-0.6335885833115859
-0.8327362168574136
-1.2058606152869162
-1.4121915155468265
-1.606474961362561
-1.244380554014295
-0.09695806814712657
0.9320151907173146
1.7217719111878471
1.6242129024935723
1.1466965072278938
0.7564073256595099
0.15629302838094014
-0.16350442297588424
-0.4011495743365814
-0.5332535826748427
-0.7237198658797895
-0.8543604746073894
-1.164662801075353
-1.399427901322217
-1.5172345113103873
-1.0885994366225784
-0.10625762260675953
1.0009502194292454
1.479398382409714
1.4285285118742943
1.001359946468104
0.45570310230000005
-0.010994461521631582
-0.3019503113256275
-0.4794909817948992
-0.6219057863964234
-0.7687080288026688
-0.9474988723897775
-1.1719072252273384
-1.4057719125835584
-1.4239384434694786
-0.6911676952058472
0.34881058912181495
1.2703020864328876
1.7419213529911561
1.6165284394968549
1.1056407382752047
0.5914393844363177
0.1658909018086897
-0.1208503146121002
-0.3049602822686573
-0.47228482651436043
-0.6281541549020887
-0.93045244664774
-1.237522369928902
-1.3971934142986542
-1.38269215921264
-0.7032340511579673
0.3437340587047597
1.4186630014215285
1.8100607175493781
1.623376245619039
1.1553961388327771
0.6102979804926616
0.14303860742349836
-0.13916444136343978
-0.3934144747691168
-0.5453560330892718
-0.7185605836845361
-0.9502159437012311
-1.1805123774500694
-1.3864918017688876
