0.028828969
0.028828969
-0.03899773475201211
-0.21632262301373253
-0.48119553457625025
-0.7831285588103458
-0.9340113115985746
-0.5779914872715082
0.22189488709245497
0.9150882397324485
1.25787195356248
1.1769776590356953
0.7919252689702034
0.3533844908537997
0.01680643507694543
-0.03515550445434609
-0.08381043543851921
-0.1539082101782663
-0.29715311892619833
-0.5302045885286433
-0.8867002180234836
-1.1237716979960857
-0.9092447268260686
-0.33122601699565135
0.44147171528471013
0.862737525594825
0.8834590082591307
0.6509802892897352
0.28967417493104275
-0.0023684083171666287
-0.1493822407948941
-0.1742179930118932
-0.13877003937633214
-0.2431861197271807
-0.4399357838532322
-0.6872817503210341
-0.91768603
-0.91768603
-0.38250055598617705
0.5168056882324042
0.8302624001083648
0.9239451354361506
0.6874762832052551
0.38134617165582163
0.06741428397451343
-0.005524247403175767
-0.012061044679413987
0.004888396922470374
-0.11206086907162569
-0.3044692003704961
-0.5428219099910487
-0.7502239344516107
-0.7276948948962901
-0.15030866742025675
0.43405054222073297
0.8348361637982035
0.8046160522876129
0.5347511699759903
0.24392432483018717
0.019247195867823013
-0.07902211731291431
-0.13189696
-0.16428452388059195
-0.29090379787782666
-0.46448829815618226
-0.6784332891179922
-0.7427501040165542
-0.46174185558155606
0.09672428646807595
0.5945552148892258
0.7552332923633569
0.5711429994852557
0.286055797091828
0.05761517807302913
-0.12360622966002249
-0.18706004550384658
-0.23688816755802342
-0.2988666337439664
-0.4265214395051417
-0.5783049632430557
-0.7734938307079574
-0.7330644119081147
-0.3873348855505514
0.18479499652287731
0.565983000625828
0.682938523803035
0.6113865206353667
0.004155225707877658
-0.464596978318422
-0.712475388047188
-0.7637149418471244
-0.7391379917454401
-0.923961417839209
-1.181654934662054
-1.528622039276927
-1.8775808113854913
-1.9729157734158667
-1.4350092282323024
-0.26476359722511245
0.7607841567530415
1.1562101382655674
0.7092340637567934
0.044698442459717075
-0.48753286897398523
-0.8025486391181401
-0.8188006602011086
-0.7301354122891279
-0.689615014892151
-0.9387368806404995
-1.1977668456484982
-1.5072734925430116
-1.7191699649127858
-1.5183593224750624
-0.5433393044048194
0.7241346876881701
1.2351548248687796
1.0660089371603267
0.5273711392800549
-0.04661112114722521
-0.4019425250693032
-0.507566536599979
-0.47290423026998585
-0.45633991720022193
-0.6618359306198902
-1.0164403801151356
-1.3946914038362763
-1.6066853564604786
-1.369334966492184
-0.2734641487997562
1.0096030165091294
1.4351486853709545
1.19575860903376
0.6061325189814916
0.2169164255998175
-0.22291279806322795
-0.3318649428479266
-0.4083559218961689
-0.47054792376623344
-0.6052642926573472
-0.9039020481686251
-1.1929520738724384
-1.386680110669243
-1.1105702713511396
0.05168960181359544
0.9243612123821585
1.3818087531337324
1.1360956732082288
0.6614195702559819
0.04415467719594904
-0.25155474968065944
-0.4346938846007419
-0.4643268851819744
-0.576265929687066
-0.7208170830958494
-1.0961267079418318
-1.430639596013986
-1.6114368964392138
-1.4137443880318623
-0.6360420322486788
0.24272956646578947
1.093197310709664
0.9058539034008304
0.3632976059919193
-0.236622654598902
-0.6684528722740415
-0.8604265514790305
-0.8887337937432148
-0.83909105
-0.9233135255549427
-1.1519529910415687
-1.4661250768257204
-1.7753376169936526
-1.9534575
-1.7691827223834788
-0.9930314553902944
0.10588901043217461
0.8288059083497553
0.6759290754692181
0.08556665713644493
-0.5240984547651225
-0.9941297263234897
-1.1147294006205268
-0.973948051581408
-0.7333897791084784
-0.7844552606427695
-1.0511875829024109
-1.3109279526621187
-1.6584839503541526
-1.7737721126032049
-1.1794853865054358
-0.1303659634308711
0.8887549166909949
1.0963423511328403
0.624766224100284
-0.033551037739988604
-0.6125415568470434
-0.8907101629047347
-0.871584354355755
-0.7660516455425569
-0.7889868464412559
-1.0136837992246686
-1.3322822691868739
-1.610341297460006
-1.6637358254633035
-1.0629443957745468
0.0007783867619399754
1.0108318797539178
1.2942802359224463
0.9620527609366619
0.31446145792149083
-0.16008308044336778
-0.5071956140994642
-0.6393345023417141
-0.6203972915361851
-0.6546518887728369
-0.8306369128347167
-1.1162029885419629
-1.396336036197692
-1.3646381067135014
-0.6957239360905974
0.3171224083045736
1.0841723186907888
1.2657798022410636
0.8503678210590933
0.25262520942466904
-0.16073608505332979
-0.4167918583039896
-0.48594058103776955
-0.4814348612960203
-0.5553763138547685
-0.7553903344761033
-1.0516059912705067
-1.3385802044832409
-1.3083424751267947
-0.6263930570125964
0.4157936184060315
1.171827861060011
1.1016491489696694
0.48952820092122695
-0.07612320546063793
-0.5690602726562739
-0.7691572745557884
-0.759334933857498
-0.7345128236050344
-0.8167369211836479
-1.0165235487892081
-1.303218119225198
-1.5216616264646246
-1.7614202931561285
-1.2170763835400005
-0.28056856436633715
0.596298132655052
1.0406464024024875
0.7045369570093982
-0.05677537816083689
-0.7934554995181359
-0.9533091508830598
-0.9146717378303808
-0.7305473367213101
-0.6537582518883432
-0.7809920887773925
-1.0474115134242576
-1.303352740920783
-1.4412303055031814
-1.1361979859304197
-0.0991464813545217
0.8964709658861517
1.2437490064149372
0.867447981902955
0.18213735224190092
-0.39546436917853955
-0.7365214412715876
-0.7421868818389651
-0.6293257474832069
-0.5797198324548938
-0.7468042844504248
-1.012446533352316
-1.3733080011938323
-1.4149746330774957
-0.8230338398855679
0.213851002045143
1.1663717127894666
1.2222404556866
0.7394861173845264
0.14628823348999936
-0.26965554685761123
-0.5530066991418261
-0.5812749507588645
-0.5199226421855553
-0.5455635456154018
-0.6784819488873328
-0.9611573861611663
-1.1472379944341207
-0.8660704461377449
-0.029602240276034086
0.9599590686376777
1.5078561411077958
1.2905570498487173
0.7508292460420525
0.18066573852788892
-0.15083961303683774
-0.29057354414268655
-0.31919308976079075
-0.34955149851812
-0.4660456882803226
-0.7044110698024796
-0.9474235260158094
-0.9808725694838194
-0.5452444022743811
0.4573827582211064
1.3036157226960294
1.3806198818601834
0.8920389747026554
0.35637296234348304
-0.055894855231142945
-0.2789653277117124
-0.32028744390084424
-0.2762448420768418
-0.3365634205077268
-0.4943251175312062
-0.7545699844302005
-0.9940224132030184
-0.9653880226999256
-0.37578441802371765
0.6694601596435076
1.27084282575912
1.267982356174191
0.7794767089983894
0.19831226600282204
-0.17683479411275746
-0.3237391437822839
-0.2782358227857987
-0.22754357443298065
-0.28915384969188135
-0.47522286173548706
-0.7456505288068398
-0.9737615537614575
-0.7758629660056379
0.03774733624730264
1.0270827209224653
1.6469370277236983
1.5025629800686755
0.9906759678698409
0.459328879266719
0.09974472314412658
-0.013268889882152378
-0.0042487245760740415
0.002962582479777067
-0.17304497495676996
-0.44247274325957897
-0.7191423007529344
-0.8668566283655191
-0.5683818708220018
0.23922339145926064
1.1383679792799388
1.629287817566136
1.3679889290438498
0.8627187059516535
0.42292835000211626
0.08870476358940688
-0.02894928727059211
-0.08670489161446304
-0.15885519023074468
-0.30238299877878616
-0.5439354065082017
-0.8347107757581651
-0.9350132001582716
-0.4852410652140823
0.4676457000123159
1.2381892168482915
1.6861721855152256
1.3386289839574081
0.7902010228361065
0.40104208585085593
0.07017198547616538
-0.04891456838077077
-0.15626413449223087
-0.24344910567762762
-0.4458620719615206
-0.6892651220012017
-0.9435654501822379
-1.1056341015164675
-0.8715840062798504
0.03658757312478822
0.93986390787981
1.420072703544476
1.204239737454097
0.6624666593301938
0.11022683628105306
-0.1237300613164447
-0.25152549553299886
-0.29511210544731237
-0.3163893861103726
-0.5397030211587263
-0.7582500918163199
-1.0697928062851303
-1.333888230496474
-1.3986233610181815
-0.8749118566061227
0.049664450123011294
0.9306951685734216
1.0852388584058181
0.6398346124597987
0.08423265871936875
-0.43180757458538593
-0.6406880160508142
-0.6451750655525531
-0.5533507437296442
-0.5593693294023752
-0.7188670202609472
-0.9528708310763501
-1.2227680863363688
-1.4746235540404766
-1.5434696634918674
-1.0146272825637608
-0.13458531354041015
0.8503769469441583
1.1553229812236743
0.7246436732494038
0.1130288752733522
-0.4259960872406384
-0.7305675568157836
-0.6809489302077192
-0.502925005575885
-0.42485444982795073
-0.5249358649803325
-0.7442657631752705
-1.008370076514949
-1.2190525486196493
-1.1334349381297595
-0.5113648626843508
0.5773003805843518
1.3211909736296858
1.3482209209758311
0.8637031940284383
0.2566826247223122
-0.10716902163069723
-0.36607542153110967
-0.3275104475005322
-0.26429898087223197
-0.33770131828742866
-0.5667731040794846
-0.8595012225174875
-1.1302465715092742
-1.1831295632472822
-0.7094798329788885
0.3239459174811883
1.4356548471523862
1.6665969763733919
1.3392168893328922
0.8122229958703138
0.31812280786884356
0.010481238831217654
-0.10631954282576156
-0.13189696
-0.18500282851128896
-0.35446368051020116
-0.6138788764600711
-0.8877262767122193
-1.0670181067429816
-0.7943193471449437
0.009414385497896416
1.0347678631781316
1.6922466511806706
1.5551438615192128
1.0060306892472295
0.4282550174520535
0.016812661488575187
-0.23231128303574522
-0.36248057698501174
-0.4071372896470533
-0.50269667733309
-0.7251970248389011
-1.0345745100084214
-1.3680462318880675
-1.521032381643187
-1.0820103697978953
-0.0165869936089037
1.0881088029696437
1.4854986255190616
1.0701191472797271
0.33699208993242613
-0.2543412583976529
-0.5842958341762197
-0.6510689196437939
-0.5195335481199925
-0.4874332458559749
-0.5828193687469481
-0.8806868201737104
-1.2655314309495551
-1.6061908216610263
-1.6363866002284246
-1.0040310430365857
0.142675620525464
1.1927733100941253
1.452571692721528
0.9184251699680768
0.20442181685345912
-0.35894921936528273
-0.6336350770279643
-0.6116081063756953
-0.44346159231835247
-0.3763016735305511
-0.5263614491525607
-0.8157289548363647
-1.1711151110316762
-1.4131199816846627
-1.0353996151463347
-0.07485626786410787
1.2842436684574812
1.816674213630586
1.5776487800367105
0.9499945408664621
0.2502577167590778
-0.1911778991118188
-0.37784978782165424
-0.31322898408865346
-0.21118141021436052
-0.28185223816936056
-0.5273669157559938
-0.8915585939996589
-1.194285919209767
-1.0386684912842838
-0.14821173362020978
1.1779378958190954
2.099373115740185
2.127317577577122
1.557612496147062
0.8541633036749282
0.34421160707652637
0.046489666018520524
-0.06368559856322847
-0.02823764254478231
-0.09678144251175363
-0.3232967660318731
-0.6301965118738894
-1.0293391578620084
-1.0958350935329348
-0.4179395318366679
0.7315061858371212
1.9511155160651443
2.2126703808012995
1.8512449975886853
1.0593745322889565
0.587137114081305
0.16024595917100898
0.006729258970192612
0.023445585014560212
-0.020146899764477418
-0.20961574635437402
-0.49576599211754396
-0.8943061667604343
-1.3447909018583915
-1.208244970990133
-0.1591384923435094
0.9671386743470157
1.796949566364135
1.982396950040739
1.4011783463296856
0.44725549321202324
-0.1772563944798207
-0.4366396084336733
-0.38193509334327236
-0.2205630702437104
-0.18601390427292713
-0.40398202285655205
-0.7633923587543985
-1.201151329909321
-1.5890152734125045
-1.2346516097590157
-0.08580346445065157
1.3116992731453336
2.047366307588491
1.8478830170801643
1.1333153873928765
0.27845064545853526
-0.3716474672421437
-0.5130673050862955
-0.2965565416026597
-0.04393938672920503
-0.07390988891663569
-0.35118341870111097
-0.7483094229819681
-1.1921069766811487
-1.0018297797315248
-0.015795586704026365
1.2641609010620214
2.219509947809764
2.257759898338326
1.6166116040377392
0.8407876458400287
0.20268327122699126
-0.08342172326136839
-0.04156726902731159
0.09473814962006709
0.07862690480704954
-0.10854800234196318
-0.4350033225076632
-0.7916849700547586
-0.46825454235640734
0.5532829893478435
1.7952488869381706
2.5678678962410153
2.6553901814163217
2.1362481176059482
1.4272281144153063
0.7974313773570288
0.54710300994615
0.49920239492390117
0.4562516974204413
0.26482341872326387
-0.01036522166543935
-0.37950392659392923
-0.6059255439303469
-0.06023357383637884
1.1004822652995572
2.294395214838298
2.713518887796628
2.4408088607469667
1.8510503004600078
1.284580606595698
0.8377072483276886
0.6469501714109163
0.5811154976674686
0.48678470627514636
0.2977604646916454
-0.012921547223038468
-0.4052539183709313
-0.658598357555657
-0.2986231227695293
0.727914865582282
1.9722206366791208
2.348481772149106
2.0676656042177908
1.3741990287263728
0.8614974342766042
0.3549746746659875
0.11628672058650145
0.08561502665463185
0.022739099618723425
-0.19720087978360773
-0.489001413590013
-0.8853856023136112
-1.1813508272378939
-1.0815816961363516
-0.23286489341878636
0.9533866825532425
1.6157340019999933
1.637254770689118
1.1104078134841149
0.5165828025378661
-0.07812218811089094
-0.3197752502213134
-0.24656687211392417
-0.17614839470504487
-0.27722204477168655
-0.5248301851196406
-0.8960544845956272
-1.2335500137737876
-1.2887152075218251
-0.7070758955875741
0.5540782937976807
1.3980321291487878
1.6815577779901045
1.3371499061012462
0.7559007403563365
0.20021775595585273
-0.08118292119935064
-0.11322776019068623
-0.055725726319954975
-0.08615686760714589
-0.34707840834015224
-0.6746694856473713
-0.9947034070959869
-1.1967226816856142
-0.8537609964109063
-0.026947928779821217
1.0897046544984164
1.703570040481404
1.5392773649776577
1.0402608674292555
0.42212803914313946
0.10826050051008498
-0.06246546403684511
-0.121109910568621
-0.15070433192766106
-0.30140319228942747
-0.5764442253014527
-0.8735014293432019
-0.9959435779838374
-0.6094188135081575
0.26458610590208964
1.2318913386207682
1.7507611443822777
1.5550977475350398
1.0341661164472429
0.5536767444199413
0.23483131805940843
0.03401436575989113
-0.013836940735309625
-0.11381590042530004
-0.2832752637109635
-0.5343522649034702
-0.8106511799463065
-1.093548114567923
-1.0194340845067027
-0.3633920333492059
0.822769919065288
1.6099830744356751
1.6012699007236666
1.1699051626835637
0.6373197564459409
0.1661815783112236
-0.052734049239367586
-0.15990564552760883
-0.21716221048671766
-0.3379403804853786
-0.5950957675713234
-0.9012155268934045
-1.18417132508882
-1.4891028019975396
-1.3783491171796418
-0.6140804170877425
0.6052416480332066
1.3255858743954063
1.2520688001604179
0.7502989954250577
0.22121106248350336
-0.1436004994682663
-0.35476235358317143
-0.36202888367725705
-0.35691326
-0.47585864741463635
-0.7147023317457486
-1.0395450082429794
-1.3395338377751653
-1.601709167811893
-1.2037723715915787
-0.17722266830791733
0.7512154247237134
1.337382091879422
1.1271704373413711
0.6163060416126585
0.015410653175239902
-0.26863239277429124
-0.37035075436721443
-0.3546956938957883
-0.3511525136203856
-0.4720815267251789
-0.7212831997082999
-1.0057721714772103
-1.2228817517418984
-1.2132768164921135
-0.7070074694512736
0.2334485026577342
1.0696836923602406
1.3908906297261276
1.0113057829968974
0.3943447617909916
-0.07999734947716527
-0.2994924828525256
-0.39047965657077666
-0.4171517109903173
-0.49280357367511773
-0.6502762036965408
-0.9345569493137935
-1.215122247437255
-1.430027567964166
-1.1128541553335156
-0.16919588637742866
0.8531374357377971
1.3564901558503153
1.1029909572737204
0.5366667538028611
0.057470968448704196
-0.2435138588059505
-0.40327658982393505
-0.45334882
-0.46014522708475947
-0.5560486937613464
-0.8207672673809762
-1.1002848491668722
-1.3412252992304607
-1.4246426714164906
-0.8927105833534873
0.18458752162360204
1.0233761289837653
1.2860751266347776
0.8105068845338514
0.16319743464229136
-0.32095108046221743
-0.8283670596132839
-0.822281763618574
-0.7630850956327391
-0.7772459702245378
-0.978364302639902
-1.3106901860841074
-1.5722450508202392
-1.86460102196662
-1.9973634812940755
-1.3952330540482925
-0.15859533201260057
0.9335603665539415
1.014732682918668
0.4885192572889109
-0.13219166131955606
-0.8452432902600058
-1.2015640140255912
-1.1476259097847592
-0.9118978324351219
-0.7871690061150388
-0.9178455318053143
-1.1732336994344807
-1.4941345327936422
-1.8781329909153832
-1.7860877801460708
-1.0783426221899102
0.022971600534906267
1.1278161099610955
1.212925312042768
0.5355675826454667
-0.07125100993427363
-0.6659687835978138
-0.901258264065324
-0.8780230098976588
-0.6396435084020224
-0.5644143117988014
-0.7359344565675732
-0.9877028141322777
-1.3570964178246878
-1.5940945126939532
-1.0969633780787214
0.1636850892450541
1.2477008605645952
1.7138744536319135
1.4127916570178807
0.8126800955413911
0.22571610217550603
-0.23886098820788257
-0.4698703111748647
-0.4291045762184162
-0.3905206254834681
-0.4888902362578708
-0.7702747154655084
-1.1387300373569824
-1.4140993369568968
-1.0459981369619227
-0.007900073680116249
1.0094587112805202
1.704303318796009
1.5953719772146282
1.050948703638277
0.3946634404287106
-0.11290484298075426
-0.339050451892664
-0.34780815742255405
-0.3257909280181107
-0.45604813921933596
-0.7568663477064315
-1.0643558843009844
-1.435355434633267
-1.2015046949874773
-0.2660072337697247
0.8371359821250017
1.691704774959317
1.5579346638350393
0.8971317430905872
0.22442633922917443
-0.4420847684875374
-0.554935755420248
-0.4605990156577102
-0.2670698592071775
-0.2988596335748948
-0.5034467264988289
-0.8063888748727326
-1.1435196924544786
-1.3133649409545285
-0.7530914990034725
0.41554980627627247
1.3707726235161235
1.7149252675577207
1.369257291754774
0.6572612638123175
0.0468013192270611
-0.322406280357097
-0.35046565309655464
-0.1617099670152748
0.006891834769136334
-0.07623802070159305
-0.40562479882109187
-0.6656196529931296
-0.9138404529740396
-0.48548762571148407
1.0427417937912047
1.7193540780503993
2.013714458789294
1.7031188997525786
0.9298989640148294
0.2508536834374391
0.05720500056451189
-0.0015254228361956078
0.0921823453786789
0.14204930808977226
0.018788364063074103
-0.25564218435805997
-0.5824392207192098
-0.7560441961921758
-0.13615179150354018
1.1902494803402504
2.1088698033867628
2.1544142710682177
1.6265282818231253
1.0334593829734007
0.6292088705897674
0.29948832287371857
0.2739310256639149
0.29646115505900206
0.21024783149061915
-0.012176839541410106
-0.38788779978858473
-0.6743127873919275
-0.5923842103616637
0.024573691490539208
1.2119809012565257
2.040153560376055
1.9311904792099823
1.4454136918861207
0.8291162908250822
0.4118279404655672
0.19338115525769697
0.1371319003107972
0.08476783907295042
-0.048125727640368904
-0.3028712613171105
-0.620735951325373
-0.9638269811801932
-0.9374612364189555
-0.3011814108049352
0.8870201667111839
1.654527666797439
1.452889807687217
0.9252131280991612
0.26510979636083476
-0.16796823801009195
-0.3268386280945956
-0.33548314
-0.25164926506447927
-0.3211550578305921
-0.5426176872922454
-0.9310468950921275
-1.232460908645077
-1.4958560131090488
-1.0357196882608695
0.12467694534143858
1.2646212416655116
1.700095277944252
1.3627559693414846
0.6431175614062438
0.07220701263747198
-0.3808917298817024
-0.4291180437583217
-0.2741246173550202
-0.203573625324777
-0.25002757712118373
-0.528634842392145
-0.8175640050026445
-1.2248688546445459
-1.2353822756303559
-0.21285747920178633
1.1365748091686836
1.8409781362042412
1.7580371177167105
1.2757824095244852
0.6465822362552176
0.13710255803655136
-0.02233490231469583
0.028368662267812234
0.13307025155257587
0.06150102523795348
-0.19278659332950204
-0.5412324622353709
-0.8559381014305768
-0.5609477536786004
0.430504084184353
1.4368398252930594
2.218832761503331
2.106756417586535
1.5194106544321524
1.0523607974289735
0.5339484913290572
0.3621764398031746
0.35028083
0.35028083
0.17199940424169197
-0.10121127238293386
-0.4388108552508464
-0.7954140587235081
-0.563334372916921
0.36185202130416416
1.5189146188090656
2.381045779622621
2.2565020162827087
1.835844234477628
1.3884132527300563
0.9332992516327603
0.625009566368137
0.5145898005490098
0.3908891246656585
0.2243367031221275
-0.048606523691698794
-0.35375392284060103
-0.7251812069325972
-0.8244610105002819
-0.34470666761641244
0.5669807102469621
1.548291619736488
2.1273726998599
1.8436613800059414
1.3236873253445929
0.7737456490771383
0.3405059042982785
0.12256384600133921
0.0717350098018906
0.0021476629122993487
-0.18110292043259613
-0.4635293320557809
-0.8040853376452998
-1.1455888872399385
-1.4610887991966068
-1.349947331197454
-0.2804995723097303
0.7266394092327254
1.7155308699046783
1.5406083999660594
0.9635801057487253
0.3511639949434606
-0.13119187947797847
-0.3442551828599617
-0.3092266067610267
-0.24798415480503866
-0.33516912599042026
-0.5692261845863884
-0.8953515415719282
-1.3169288733399591
-1.5639544039811755
-1.5620574141613224
-0.7456671770899097
0.28603616985566294
1.4041942535022391
1.5958460790155675
1.146648446782635
0.47226327188231304
-0.05689911323083334
-0.3577385188066757
-0.35655137821541794
-0.2601466345305846
-0.2123445753066857
-0.4245286481455579
-0.7671245037793999
-1.1458288710084181
-1.4854861023072996
-1.6630203912124526
-1.0464614269033217
0.2182051615934849
1.3897381130777202
1.823222161105947
1.4730166474065756
0.8786494515404968
0.2686660066471089
-0.045302285502193465
-0.1839226732285033
-0.15396062284348144
-0.1756977894337527
-0.3522779906766717
-0.6909489101427059
-1.0572892111848637
-1.3703467023414042
-1.5764044940100452
-0.9806260192648246
0.35168544585433825
1.3517178197058843
1.925798328568772
1.6193227195084727
1.0056721444496648
0.4128520931050508
0.09205610852895607
-0.09167464627296183
-0.13189696
-0.13225624178544168
-0.29611098320719054
-0.5467392762638565
-0.8930428025413671
-1.230022066446978
-1.4931336434979225
-1.2203364555856893
0.06770893063247488
1.2719731628374846
1.7499501528028925
1.5788688276366485
0.8696392795183646
0.12410556940376508
-0.3261488376517822
-0.5304589496455897
-0.4948463472323423
-0.418710250454996
-0.5616122343581073
-0.8435248388733438
-1.2509108919650758
-1.6321720314514387
-1.9430505052723264
-1.8160211814504714
-0.8475249347108821
0.36578468975241085
1.5844838539479973
1.4256275930372468
0.7205532738061009
0.18654532326123696
-0.5618277557528096
-0.8664769447817121
-0.687747760874807
-0.38026310928997403
-0.32795212006938695
-0.5911040579110061
-0.911462414399319
-1.25237116961871
-1.6928635124162192
-1.4224730187548154
-0.4904696574077794
1.2178356280837488
2.1356341851191685
1.9781768340117982
1.305415302361225
0.6519047548279302
-0.1477539648742945
-0.3306138820577261
-0.21070019610366922
-0.07144825865000529
-0.1270907842468536
-0.4018907656422372
-0.706686377185175
-1.1416940334939445
-1.3885495676898565
-0.9417265943361502
0.6555881769443072
1.738049202057605
2.404416537051102
2.0777230005575684
1.518853879067174
0.8107003819561662
0.32539753235001523
0.08921450594668895
0.0497905248808433
0.07157054765190335
-0.08973199161544576
-0.3871879235330822
-0.7726852886865748
-1.1474139096940326
-1.0006380259759484
-0.00034817467020475945
1.361894816850453
2.24740995413853
2.195210455076953
1.4741766623789867
1.089124247903485
0.36756182664226666
0.03132198621197821
0.028828969
0.02175418117962511
-0.020800387295154352
-0.3845915525022702
-0.7877660344772446
-1.2267811845790217
-1.4807683159989382
-0.873194905695345
0.30522759587648074
1.6474351270985874
2.0756169108940266
1.7293117860462224
1.0224515613318723
0.36712574594540537
-0.14377857873346958
-0.24855126475172917
-0.15421867366659003
-0.07446928286991203
-0.2249178107774097
-0.5277955872964307
-0.9635345887720032
-1.431774057469345
-1.579086901049975
-0.9719869829989861
0.3185905731020898
1.6268974749663574
1.901135453617569
1.4750854722489717
0.7381944995521279
0.067254100252184
-0.3553798621772176
-0.40723102526340826
-0.1859816225668369
-0.07899567850233982
-0.2561399875585709
-0.5667883408396979
-0.991702374299665
-1.3549585907306052
-1.1137223079724874
-0.21803071678475236
1.2909966693638142
2.119253903762122
2.038303059745022
1.536989528317174
0.641756202777924
0.18613607321076814
-0.054185268878596614
-0.022259140502841102
0.07697611351611149
0.07902958955311634
-0.13042556082460574
-0.46423358432335216
-0.9330723900193366
-1.1079703913718149
-0.44705737125028183
0.8406597805464153
2.0402133362918424
2.466576376810415
2.1645676833965513
1.5478546823666806
0.9076172841963664
0.4875853179938979
0.3546100161271368
0.3752426559617325
0.30173328250614984
0.04871373635774785
-0.29917256902789413
-0.6674374710027119
-0.91029120660426
-0.22895014592754684
0.7824701690432969
2.0043820620283426
2.651267370380527
2.417700838692584
1.7684548003281175
1.2570374515794607
0.810393037603373
0.6542011663870081
0.603081078269381
0.5231760548061071
0.25772421844327326
-0.09143312415562557
-0.5572470159690367
-0.7689661736436578
-0.505130962065831
0.38995353628530327
1.779235066681301
2.407409007583939
2.3972519968703536
1.8699674195409406
1.3535049567436703
0.7670282821548278
0.5032204151402787
0.381573163918351
0.29438819273296585
0.12357399647472869
-0.13855746836057534
-0.6686233337278298
-0.8984180046035611
-1.1344632347858685
-0.7421308319050072
0.3599778929590489
1.3271994650646048
2.0535691663882103
1.874700634169801
1.341474409922057
0.6480112017409718
0.23771374834630707
0.04516595901558838
0.07234358436180893
0.038511736757384285
-0.1434770001339185
-0.5025559969595523
-0.880469722008337
-1.2236639652665138
-1.3513145449652142
-0.9910362484985198
0.36930019447636997
1.3138185458261835
1.6421658860193793
1.4018717700500427
0.8819956184278697
0.16944860892147484
-0.109211731477756
-0.1741562000476921
-0.13198555874987294
-0.1755665956666757
-0.4078404161798259
-0.7444704825273979
-1.097245367948992
-1.4242527818187665
-1.4328064989275402
-0.7382373679885801
0.47630329404823635
1.391217713667019
1.5271848133908585
1.1539875755476503
0.5985779598969542
0.15278113590052333
-0.07992316626544183
-0.15868461
-0.15868461
-0.27074670341663976
-0.5555533459730512
-0.8392646578841639
-1.2830873715140196
-1.4579950405891382
-1.1939359361860953
-0.2816563016762406
0.9101738487076371
1.6464764177735969
1.5796869549282269
1.1390874966781888
0.6748683496703896
0.23123325467768913
0.035395895679837815
-0.0313646886625126
-0.13240381100647228
-0.2779984276909151
-0.530698883001334
-0.8868756572432374
-1.2429473842399992
-1.4950689621218125
-1.3091447849190045
-0.4441215009718893
0.6038870666785467
1.4082755503411075
1.46225162790298
1.049113786393889
0.45243506736563405
0.025783601963974667
-0.21498310378095145
-0.2815895518404387
-0.24805678926667188
-0.33571740606023115
-0.6037196116195338
-0.9313493237544401
-1.2756195227122413
-1.5628014016767862
-1.718826671386003
-1.4888418209357583
-0.48340992218655743
0.6867594022852455
1.3710898720115097
1.2393876700863746
0.6919904138817641
0.15877886755696574
-0.26038810058551615
-0.3995284650806016
-0.331411814759554
-0.2584457159658528
-0.38090257391976634
-0.6596672397859104
-1.0302655410523305
-1.3621841851374525
-1.7047744672064518
-1.674253447885483
-0.9748800785071646
0.1413767846229853
1.2354902239987835
1.4730371689128663
1.074244594415736
0.47525905198861895
-0.018747637875293186
-0.34455734489003537
-0.37183154539408536
-0.30277392595716496
-0.32104097455196934
-0.5075765743579121
-0.8646531458451092
-1.1399000222616344
-1.5190667706085785
-1.4909247941612427
-0.6028691940485085
0.6758844661298946
1.580504990668489
1.7228994099835409
1.3327162460127446
0.8053354907822932
0.2614574862530289
-0.05176992406480224
-0.16843150037418364
-0.19442124674034833
-0.2567321901037531
-0.44657497431058185
-0.778777435280443
-1.1331696610902902
-1.4453863546534238
-1.3791765774557756
-0.5357257336857957
0.5909018895815362
1.6547773086808188
1.713337402454231
1.2751116088007224
0.6689712707048368
0.008773617407435541
-0.28960877289468323
-0.4390123495983889
-0.4613535009844666
-0.5229831979957658
-0.7063964877889235
-1.0190905076860703
-1.368431157104982
-1.8132744764002229
-1.8741297056272905
-1.1868055556301649
0.0041959518494302794
1.130336866612057
1.501035200346815
1.0494021823133384
0.4250751185163384
-0.17908138054481498
-0.6287468609452291
-0.6959267457021636
-0.5338790427738094
-0.4346112949289484
-0.5963250141256082
-0.873018106055145
-1.3341950484030944
-1.702650857689682
-1.8253151622246033
-1.1907315934027276
0.009340414142466502
1.2578680013023116
1.9044630121684687
1.5559390283574293
0.823491973262054
0.06169839120432144
-0.3201907384053516
-0.41592419403463965
-0.27690771878708315
-0.15324305044620867
-0.2520276880192418
-0.5772746880162969
-0.9688398842061827
-1.3252525235876211
-1.2725601341501451
-0.3653158308552884
1.0024558858472812
2.0521246117617458
2.1231718355363345
1.5901034346501555
0.8971235311894441
0.24209267025947262
-0.15277630864289082
-0.22031204307583777
-0.16538094917592927
-0.1790155010644829
-0.3849435630121133
-0.7807295569485875
-1.1858306716480198
-1.2756568581185252
-0.6954633138084928
0.7032490235398703
1.747016213991269
2.049548157928614
1.7094094124806463
1.076271359595568
0.5177127907971595
0.05144188799380408
-0.057459045393057455
-0.06098626729335772
-0.08194583439408958
-0.2486845458451745
-0.5679351043378004
-0.9943550392979938
-1.3794489103878302
-1.1058035888577369
-0.0903703690188678
1.1530560395517147
1.8094251561228865
1.660199780734328
0.9933162657128372
0.24388805263810484
-0.2378376630692455
-0.41948754502553876
-0.31748764926330153
-0.2765447468473725
-0.37568742544828354
-0.7001743783333372
-1.0575000728356292
-1.4281847035580155
-1.4178157116368761
-0.26296046135935386
0.8703981229617404
1.6391355137376853
1.5483812071862186
0.9261084071175734
0.2520942072731975
-0.24653581479103504
-0.46916492245481045
-0.35698986300405167
-0.1844481996317669
-0.22157645686581476
-0.46384286931591767
-0.8030635284755364
-1.1343319101633873
-1.0589767314226226
-0.2773492670547831
0.8732148851079466
1.7111846517435083
1.7125421959832907
1.178740409518732
0.5562064212598772
0.07710693250485513
-0.1316901668650488
-0.09761908550598125
-0.03769190993102519
-0.07955241040127464
-0.29232525674652393
-0.6408749465798692
-0.8274740437612728
-0.4729707822457118
0.3939889375316209
1.4877957239481896
2.037061037534112
1.9231158297115083
1.4928705668267566
1.0605119410286619
0.6787145057283238
0.499904953664273
0.45094184670664655
0.40182745501415396
0.18939361213587932
-0.08152556847064216
-0.3334432105611949
-0.4327837577199792
0.1559044214389516
0.9430839946383429
1.9239148838592393
2.237611193134218
2.008332644742911
1.5380297257652038
1.0383745469527088
0.7897389900866401
0.6193666940176489
0.5307336044488651
0.35599484317449576
0.06931568832128684
-0.27552988340275253
-0.6708432602392909
-0.8315238483784976
-0.35348814566106307
0.6382309025051098
1.5974850827255287
1.8680730341451397
1.5576807887742972
1.0011627429152772
0.5121694266506721
0.191178491678054
0.10897300290948712
0.11204795632924752
0.021842110942004597
-0.17775151315946938
-0.4898041710154352
-0.8777321956404669
-1.2024149983948862
-1.127494553786527
-0.6452235870823518
0.732851692617233
1.413636011019051
1.4985437852012788
1.0311560795277501
0.4477943272387759
0.029904252085095437
-0.13073677050440913
-0.10681764169331372
-0.06999307136116698
-0.22922670021088531
-0.5508317135846521
-0.8914888691218009
-1.1761774422788875
-1.3009676216261912
-0.9468125930566995
0.12151020611193636
1.1435996860031021
1.5219984806396674
1.189951015551173
0.6471583287237653
0.16511881845438195
-0.13616714367734326
-0.22700866272153022
-0.2533722726317709
-0.3548793366493592
-0.571377806504259
-0.8748910747854652
-1.197183400369599
-1.3937556579713684
-1.2079463470765932
-0.35912807852958895
0.7190968828623877
1.3677607673822638
1.3482426325412085
0.9519368760862504
0.48979563537369764
0.11684729199293563
-0.05045904211092829
-0.14989491285575204
-0.2069716159171606
-0.3512475815535878
-0.5777180154779322
-0.884284343950666
-1.172334578441406
-1.3212688
-0.952675313657671
-0.10497632492727982
0.725794670997951
1.2957389723217636
1.0341840831755849
0.514008567697406
0.03476527003880439
-0.3028093020202362
-0.4908127923622905
-0.5049834653347901
-0.5314208697225281
-0.647990792346655
-0.8768557988768902
-1.1890951579706794
-1.4579300680690073
-1.6734355644029564
-1.466110598874772
-0.6327319539677245
0.510804542390587
1.2783899022218557
1.1766450193188527
0.5002617557740237
-0.24808954635872563
-0.5183629554062287
-0.6385688616980832
-0.5435920052997578
-0.4102506825434884
-0.4736233389473398
-0.6575523795282696
-0.864690116071026
-1.1417819723113394
-1.3702962871261346
-1.2253375238458837
-0.4972513382085095
0.5489583067098983
1.367094213529012
1.4056940852052624
0.9448532968147272
0.3420173403919953
-0.18312671557382468
-0.39694390140711144
-0.3813484776409456
-0.30276875772073364
-0.35573918019313727
-0.5644927765394646
-0.8808237383390589
-1.1834360527688168
-1.4350708250345592
-1.1911219739072028
-0.2791737156581384
0.9324928946950392
1.647984618753994
1.4986921649849982
0.9543282923483054
0.41255621527591463
0.015351976394832545
-0.2251199666533944
-0.2576129920372327
-0.22782775595462468
-0.3029446507913083
-0.5389003243241892
-0.8836454955663444
-1.3058524045632751
-1.5374532178268863
-1.0836449606474992
-0.04899674427364564
1.1255668216731423
1.6235851107230233
1.455187616478364
0.9550911591056025
0.2554287265125834
-0.2975049873011329
-0.4049760861689347
-0.3949862915357188
-0.35126941703780346
-0.40719176448765626
-0.6281453180794621
-0.9846276359591852
-1.397938910362398
-1.6262221640242644
-1.3101840699366414
-0.2333937688666422
0.9465614648492235
1.5261057722894815
1.3035693834871305
0.6485912504725029
-0.038922326232312954
-0.5249282213903623
-0.6787093148919995
-0.5982716255394065
-0.487956854956212
-0.5711141427312455
-0.8319046230726139
-1.2436833617787841
-1.692220555427878
-1.9085744625178944
-1.4731310494642744
-0.3089105711979988
0.917976155553204
1.4922787124634362
1.262423497189565
0.6713875133052165
0.03719643051131111
-0.404070619863644
-0.5880007308973003
-0.4759416470925165
-0.33444713386108094
-0.3470863045086597
-0.58171244259211
-0.9115482956519565
-1.3108647987882212
-1.34346360401793
-0.7757493451641244
0.4550891331045534
1.4277353654762972
1.7354434907170222
1.376958624581089
0.6589155004091067
0.07093707504405078
-0.25292020512956126
-0.29739813679171134
-0.21609736709766553
-0.24952850898484763
-0.4839990918970303
-0.8020827252503882
-1.0883857971673883
-0.9737940342316487
-0.037282947046782255
1.2188478660161546
2.158602475551697
2.227363942643641
1.831065683293737
1.2391706714653599
0.7417781344774443
0.4253760295358596
0.3068870545081974
0.32298374286008863
0.2533111733575572
0.0228148503513472
-0.2936584425141871
-0.6173885913669257
-0.5484495492253294
0.09864961940972178
1.1539939034720943
2.1040264401480933
2.3691074743582115
1.9838721086506816
1.463735722586668
0.9515041272730149
0.555101146937519
0.37980714178667985
0.322734772017198
0.1998002432452225
-0.007995119629864739
-0.27408340653824514
-0.5950510244181902
-0.8944006280525298
-0.5383104937251951
0.4193910954916021
1.4600282160320472
2.0832167943812845
1.9342757900251162
1.3892505118955667
0.8077743820917919
0.3819207637810224
0.21029708022215524
0.22485696752973697
0.207819871891931
0.04796622622268146
-0.27122974591531784
-0.7614772188568067
-1.0666246098690344
-0.9371413442060265
-0.1958086761394292
1.035835570787465
1.8109880538950747
1.9333487506177605
1.4849944830595705
0.8892455212038843
0.32871067167644963
0.04535951857856735
0.10407237834809602
0.1529419715818621
0.06979583432541737
-0.1890191243029248
-0.5884672505798711
-0.9833341026629691
-1.0350769864408043
-0.5525810998348548
0.6116058265677045
1.7773202305672748
1.9956038934189275
1.6126127620543187
0.986723466349216
0.43425036018704083
0.024308711330823234
-0.019283773448211413
-0.02474634
-0.17329450835983418
-0.33500187317084046
-0.8060613795967702
-1.212538954042056
-1.3288000709942656
-0.7097871570743539
0.34359462040108424
1.434511099242532
1.9174417900843714
1.7619105344041135
1.2259676641163635
0.6361630081784182
0.23011718084723323
0.0640276812357574
0.028828969
-0.05200415324169683
-0.273046303379674
-0.614879941958337
-1.0075601463183306
-1.3086554292435215
-1.1436150447903817
-0.2299284043030233
0.9318113251431045
1.7378558067058365
1.7833941215911147
1.3411789450375826
0.6849602897640059
0.17706899927383807
-0.13185683324282954
-0.24407854130847675
-0.29916674090166656
-0.41257679915742895
-0.6812354162359503
-0.9927874198804105
-1.3174851650361799
-1.7204514606062147
-1.625525219126722
-0.7431985184903247
0.5128234860659002
1.4085298416333365
1.5608394481519725
1.1553281319162274
0.4319993110962631
-0.07599682121171089
-0.3043938708958528
-0.32305679522343533
-0.26236966141092827
-0.35582235128585177
-0.6181207029541409
-0.959080960191409
-1.3305394186894945
-1.6651228789236787
-1.5120156108322822
-0.6364224753611408
0.7768127592597244
1.733733545904863
1.8133294161681646
1.2860787476377955
0.6087946466147449
0.024837447511857236
-0.2869039717027293
-0.28689315661405307
-0.18617688288208095
-0.22337352805092847
-0.48326387677946103
-0.8356806240784697
-1.2040627564550026
-1.5055604120406343
-1.2836638293552818
-0.06356766556063165
1.27528920889876
2.021160068202942
1.9282985931552825
1.4313168731759591
0.8176697777898093
0.23412348302151192
0.011503554530110191
-0.005320179965524693
-0.003240664336495164
-0.1437060981043045
-0.4558076247723936
-0.8589263156247109
-1.294674133028479
-1.4275594957309885
-0.7952223405371291
0.32447364348757896
1.5554345646343273
2.33914725123597
1.9751482550571966
1.316293927047262
0.7119104431810044
0.3463098467381665
0.15448820536109004
0.13154972719851146
0.09181960779732766
-0.10894637497435988
-0.5168194492136314
-0.9718134444066122
-1.4897565101599684
-1.5733620250220497
-0.8417960062241574
0.5873291402164146
1.7220435202693514
2.03037055840328
1.6552576622331114
0.9839246675835495
0.38196128612956315
-0.026450411397087398
-0.21437301663801242
-0.19380393058489473
-0.18652398286276795
-0.42211669072584457
-0.7602826642276459
-1.3113101468559325
-1.6854775623549756
-1.8303375559116963
-1.0099986467498623
0.3874258317299662
1.6003550811732588
1.9483684969425459
1.5187500569149102
0.7466959739914725
0.0044491192757606934
-0.3653867299337349
-0.4360344997365692
-0.2584134923938066
-0.19775797966902348
-0.39193614069387905
-0.7652072698079648
-1.1729284492294056
-1.563961167871542
-1.4311151954591614
-0.6576939581814721
0.6526352366368654
1.886853574405388
2.1616175292696815
1.6337085359114458
0.825825390200254
0.07660203417536982
-0.28773686883441907
-0.3001103245120428
-0.14196866190282406
-0.19698987667769835
-0.4416755797962807
-0.82703977619352
-1.3105786225111327
-1.5873413680724533
-1.1970757424743914
-0.020426562608099497
1.5940829961862684
2.429474346732008
2.203008563021845
1.584747931147312
0.8094178108153629
0.3298787060249343
0.08800200111891807
0.06036079955723493
0.07245575445003843
-0.06444992541470565
-0.39631385670296015
-0.8480651666013356
-1.2825032470309083
-1.3641291000000002
-0.5925443037080006
0.7420341460151514
2.0595295315929425
2.3689434321170335
2.0194453002064576
1.305802959227213
0.6098712473621345
0.16367704072125344
0.06827351238143448
0.047323656522349204
-0.03570735984144894
-0.2969785680440334
-0.6891103369665965
-1.136567586998507
-1.365920964589306
-0.9936393052461104
0.13762963382739146
1.3607412753104913
2.1428721595368145
1.9953093059049702
1.4388338023508478
0.7456065879559695
0.14785982955389487
-0.07738253799507738
-0.1079617494784969
-0.1353121005317214
-0.2889708435632855
-0.5370651011548669
-0.981124432578966
-1.4086526026056139
-1.6352536036529197
-1.127327104159204
-0.03986515015977232
1.2030336634729117
1.748942510625676
1.5075755162216946
0.8993305581631162
0.18919852007688231
-0.37861749936447175
-0.4950199231887995
-0.3728460962011023
-0.33445563778356097
-0.49696370883814434
-0.8597368717969672
-1.2879671257933683
-1.702081011525219
-1.9215418543564364
-1.5091737943493313
-0.4345542162977799
0.9015666223695264
1.4785569307092086
1.265728184072402
0.6284679430770455
-0.08644882037286639
-0.5579434314033636
-0.673859882796208
-0.504608013177395
-0.3940247325682915
-0.4743303762176394
-0.7720626639021653
-1.1219128094396267
-1.4666489292096114
-1.533308227709395
-0.8305640891545842
-0.04614150857460353
