2.1586496
1.9781515861031846
1.585396224712277
1.094749472568995
0.684999160389958
0.3160599420113108
0.10499709980283319
-0.021003861426228544
-0.13935552293444525
-0.2777850954315844
-0.44372598444830946
-0.6015069597087226
-0.7621682534051868
-0.8730250866009568
-1.0124492549295867
-1.0571916312557261
-1.1192993871944983
-1.1519790605220614
-1.0322542359342841
-0.5482310177700744
0.030705549098576305
1.0348386065975523
1.8726512124964472
2.4743374848830904
2.4880387854983677
2.23371479884443
1.8894997217499085
1.3941006357732588
0.8589270612146448
0.5899116284978523
0.33089403834275294
0.15912003594346957
-0.019161096331367505
-0.20872659831699691
-0.44540262685906695
-0.6172795806969443
-0.7874969816791503
-0.9503841415085175
-1.0374419302320208
-1.1113209375251945
-1.1724745897862991
-1.1953074952879827
-1.021201654765968
-0.610417537273313
0.40576797612407645
1.1935531869515792
1.8382279937806225
2.091649564781903
2.017180369379221
1.7232697299693842
1.316890609356074
0.7678006289100326
0.411127110797628
0.15988071678008145
0.03233132548877199
-0.08415762694014087
-0.29281513351422644
-0.46149850175984397
-0.6283389055032401
-0.7584325273457136
-0.8869510639200682
-0.9865599020096214
-1.0473272019160786
-1.0706216180747836
-1.1044530890299182
-0.9989552862501125
-0.6956729070786465
-0.15344104483380128
0.7939771734362614
1.2805706520982651
1.5729841548999142
1.541571504380988
1.331322608822527
0.9603172197206683
0.517641270051864
0.17311431848323772
-0.052761434357776346
-0.20211869113259223
-0.34120784803907467
-0.4837729306956051
-0.6415520905029735
-0.803602778076602
-0.959100236115082
-1.1086526778140733
-1.2361305606633057
-1.3177136730000663
-1.3763054488447823
-1.4131927
-1.4392885657235976
-1.361425041306188
-1.034267107964949
-0.4182695940175064
0.30363246965660573
0.9128013380390583
1.3387612170454846
1.4330568562159975
1.339509864852043
1.081005498503078
0.6584980585709961
0.36485993545698514
0.04603941642715276
-0.10452180003821937
-0.22517347366846893
-0.35740890265897085
-0.49430636323286614
-0.643753053904985
-0.7867512738123291
-0.9216283173314407
-1.0440089061654003
-1.1304500856808302
-1.1886056574253678
-1.2375514113135755
-1.1987024898390257
-0.9267200427064393
-0.43146783031974656
0.19555928777451184
0.6775901008441798
0.9375649024711245
0.9682588767687417
0.811510064972113
0.5401126154603871
0.2238106997484759
-0.014898153967093555
-0.17973995471865742
-0.29298244604683105
-0.3746205160956644
-0.47827019520872666
-0.59413532901467
-0.7206702140039654
-0.8617238977689409
-0.987809025662585
-1.0804558203672467
-1.152165084429605
-1.2336352926810128
-1.2745707747880535
-1.161348749901525
-0.7432724145751596
-0.17756327604681554
0.43127435758424015
0.7989277516963947
0.9421592430411957
0.915338676062035
0.7674125400080873
0.5179200997920606
0.24759810184363196
0.05648448106878161
-0.08045456228786006
-0.1665219586132457
-0.2334665630476478
-0.36185822611249974
-0.519854971696545
-0.6381935855117035
-0.7723957391218454
-0.9046043916903294
-0.9710766630432157
-1.0310206205385035
-1.0737907710166044
-1.0507461345395461
-0.8204175966692344
-0.4073539770472829
0.14717700090283842
0.6203440979706871
0.7945281728969174
0.8188860777813132
0.7334141441273316
0.4871363922179496
0.1972244240113219
0.013628728450293337
-0.1490314652338759
-0.21488535233193498
-0.27533797656921893
-0.35604099229591973
-0.46177583790152754
-0.5965124891480432
-0.7123587092404593
-0.808276579557289
-0.8744917028457948
-0.9426860377759255
-0.9181843631659
-0.6973590908092185
-0.2393329770438572
0.19265368483486162
0.5287779239754435
0.6432790681138032
0.5927308384095382
0.4702720833261933
0.2685532098740241
0.05393036970721929
-0.10617580023253997
-0.23648190400570224
-0.3325009085788161
-0.4184169922687515
-0.5048366735074818
-0.6034840450680179
-0.7126769190725526
-0.812629163735882
-0.9202585618130809
-0.9728260245035716
-1.0675883800058945
-1.1050155651085651
-0.9974020180367447
-0.5981163387857709
-0.1125238305814546
0.3415773855634872
0.6375862518247412
0.7339058254474019
0.6902193003042872
0.5285583091711503
0.2976708591128998
0.08935178473292613
-0.05231132385272592
-0.15011217740339008
-0.2113002351164326
-0.312509928744184
-0.3987114188764268
-0.5061731540968604
-0.6197040267428559
-0.7435959508535765
-0.8235739853237313
-0.9105920383827254
-0.9479798355015582
-0.9847443557269852
-0.9580760660095117
-0.7535447906013677
-0.25219835848085376
0.14844669069247626
0.6145048548604866
0.7404405512980946
0.7370964374901583
0.6395476999344168
0.440299380205026
0.17548474381080212
-0.008750710828381358
-0.13820235509131187
-0.21062977534992283
-0.2772169816374926
-0.328666450887239
-0.4264315805379472
-0.5685541187181591
-0.6312737461521407
-0.7074364997604499
-0.825629210795731
-0.8722151498894612
-0.8957851969684905
-0.6861071764982429
-0.2865679066478265
0.1477538406712732
0.45722910554380414
0.6010073972277531
0.6658516169918526
0.8373975152887149
0.406289710536572
0.028795303120407456
-0.40047380468317645
-0.6020038530007803
-0.7090807880171066
-0.8134443057349593
-0.9773188253053563
-1.166875556996674
-1.3596691094324354
-1.5035954762354868
-1.628452575453547
-1.7835193198100512
-1.8692366555680275
-1.8846461413117814
-1.486897787338545
-0.4214839832009769
0.4539758155922256
1.2647781874988853
1.584105042235117
1.5703144493710317
1.3332304862405802
0.9816940429716403
0.4129848519280904
0.054830662676589204
-0.23277026602267945
-0.349333951740352
-0.46852547649488274
-0.5885453401266852
-0.759655006119916
-0.9535575191589579
-1.1537878834783646
-1.3476994129136795
-1.4815704225508297
-1.578779298861684
-1.5155989429303751
-1.154588249860729
-0.39177574735170745
0.5476872393873791
1.280319609641382
1.5528940469775816
1.449881277515712
1.1093806244319515
0.7540793098955778
0.2695396152828302
-0.16480288095985346
-0.35682643210573056
-0.5184101275674018
-0.6054483848207171
-0.7620338773240868
-0.9680110555351843
-1.1583251517487345
-1.3060903170463587
-1.4624412265681672
-1.5898567748251444
-1.6480443105269234
-1.464558781148319
-0.5745786950022154
0.13193953655709678
0.9968307719465349
1.2735305338616671
1.2403401076902372
0.9584215547055625
0.6018181172574096
0.05078057695734852
-0.2461239428494724
-0.4923511703697826
-0.6011927461675188
-0.7044144534718451
-0.8029979876373723
-0.9525749260063672
-1.157649484884242
-1.3285089134271746
-1.524000526819522
-1.6296510459707412
-1.7470073403028867
-1.8682859122943232
-1.824455269134515
-1.3300964603647991
-0.36278888591973435
0.5719746166853724
1.2476390644461233
1.5007383753130694
1.445520684992817
1.198948308033885
0.7851210583399876
0.2862975341857782
-0.11569464859656542
-0.40712999555476204
-0.5627960078607817
-0.6598670844927339
-0.7665429838936981
-0.9202265318591911
-1.1376079746352126
-1.3241229796334977
-1.4582292893471747
-1.5757955704892537
-1.7144875912446371
-1.8086696266715294
-1.763534540637491
-1.3305299767911412
-0.44701232515328904
0.5091897787621157
1.19447317754015
1.3630501468611058
1.2107303960106315
0.8531444855784921
0.39988110311901576
-0.04020576038518975
-0.40124488332313535
-0.6061624061234657
-0.7022375020135353
-0.7695479391066389
-0.8969788040448976
-1.0856915447356665
-1.279828299043485
-1.440449967990607
-1.5872156389448617
-1.7054967758415491
-1.7862539841591554
-1.818176967175428
-1.5727770668985888
-0.8771652171327463
0.0683686697310559
1.084945038636644
1.4593815623381958
1.52941959863603
1.292148697010028
0.9051418875205345
0.4314280360592303
-0.013404670122290574
-0.27509391070298417
-0.4454300648096389
-0.5373617750164963
-0.6376610138547618
-0.7721669763708392
-0.92424264176805
-1.0751766695802858
-1.250346713154923
-1.3978439206575524
-1.5319863820507527
-1.6020344199457974
-1.497654953005369
-1.0769009122200983
0.01976877268916022
0.9247976437891168
1.8015052687033175
1.9445381604285015
1.8245353886083377
1.5239356750708224
1.0303985484848541
0.5462989220989644
0.11764245847705676
-0.07709968207514303
-0.2113427777688942
-0.2972308104873642
-0.449623725017896
-0.6039518715178472
-0.7877469329750062
-0.916251898063158
-1.0883940136288102
-1.201824607063263
-1.1328779671391034
-0.7078226616769934
0.4132489671877382
1.2677880561890666
1.890330327277483
2.008906776925578
1.8028324980425243
1.4582896809202603
0.9495155241188455
0.4407815404154668
0.12125583923535183
-0.06254432103260635
-0.17506470190411882
-0.29573403844867696
-0.4466126241356896
-0.6073121176073127
-0.8627590806020795
-0.9689815196566387
-1.2108076783209045
-1.2025787260073002
-0.6300023937877679
0.2434857232979901
1.357484940298124
2.0873647173684717
2.4030999642135558
2.331789489332438
2.0029472025136306
1.5165049794539571
0.957126059793181
0.5416598542686066
0.243431486144357
0.048299218588527135
-0.05043868601767178
-0.1858224564702798
-0.412155264800986
-0.598216657362499
-0.8203151395446576
-0.9657616110085319
-0.7644956313078825
-0.07507557979267587
1.0090475436314352
1.9561814977735392
2.600820534959882
2.8371725198635698
2.39264912954699
1.4756435123747336
0.8540874728441292
0.5574721327526748
0.3270397009527489
0.17659775893501706
0.07439389312209505
-0.0027275149966147147
-0.07614005174778282
-0.17375588742696355
-0.30314518699529147
-0.39019399041629754
-0.2920836625626652
0.02341076759547589
0.533235920942605
0.9797913926672227
1.267136997728375
1.345076171862037
1.2509982993005562
0.9925441646026529
0.6726698205394412
0.4166491785083483
0.2108547259034105
0.07870733121015364
-0.027164223917326195
-0.13061996995558048
-0.2569820554465895
-0.38973690745910367
-0.5220666963672111
-0.5510054761388029
-0.344346902711105
0.051232397831625476
0.5156324057078759
0.882435656695934
1.0360161362409255
1.0303427089757566
0.8613892775345512
0.5285642420348413
0.25693762293139355
0.004441912374233706
-0.13941686964916467
-0.22809943114691744
-0.3341459192540188
-0.4631630058098667
-0.5729252292881005
-0.6725023930072263
-0.7693356578966879
-0.8209541340652935
-0.600054782572667
-0.1839163764973929
0.3881261660386327
0.7931169371180432
0.9263356657881479
0.9020421599489903
0.7247557474505342
0.43159982318666523
0.1765694288161605
-0.08252380358460959
-0.22423740830610905
-0.32384923868232285
-0.4259750068783878
-0.532378853778434
-0.651147975222147
-0.7448791709256334
-0.8370386298478064
-0.8917362551624861
-0.7401726691079188
-0.3743272720146103
0.1920154343902441
0.5588561043895905
0.7888960656770504
0.816361673513018
0.7098932684806993
0.49712270673060244
0.1609544793804687
-0.06635135626994156
-0.24165283423798606
-0.3367827646594705
-0.40745268889447595
-0.4878222387147497
-0.5828656871987964
-0.6774685270243787
-0.7580157181134187
-0.8403056490311173
-0.8942734568395108
-0.7908907848142367
-0.44329491756261535
-0.029090331729708596
0.4848068076231915
0.6580976224812878
0.6829269797851575
0.5558672635015223
0.3097281763606071
0.04468964628640759
-0.1822216049023533
-0.3417817364447675
-0.4070730562184603
-0.46042883714119043
-0.5022906062383251
-0.582130795468998
-0.6398295914981568
-0.7343062407038234
-0.7948520180322375
-0.8544911549059275
-0.8211959212059579
-0.5104083987093846
-0.0029813591674108797
0.4078415135067692
0.6577434646497573
0.6945532165527689
0.5797089669442224
0.38094275895405727
0.17019824551708843
-0.053801274017201556
-0.2490829567016756
-0.3568452992555617
-0.4238997140286097
-0.46776810820494846
-0.5295267828182205
-0.6077361325870704
-0.6719899381981377
-0.7583074604884639
-0.7994524259473131
-0.7741740001442872
-0.4698418124272055
-0.010864349604502447
0.4252722785503561
0.6781675888620242
0.7523557439836289
0.683767089214308
0.4860900058297228
0.24581770766140207
-0.0003848721468008298
-0.18236937089920432
-0.30658627130511557
-0.35097952351071604
-0.4076102258610014
-0.4889402257438008
-0.5392423221778655
-0.6419749901855192
-0.7112478159019907
-0.7557544195060621
-0.6346846004499825
-0.27191047470877827
0.163031430754435
0.6108301923913643
0.7529173379083038
0.7161378698147637
0.5662007228465232
0.2641674573747215
0.05502759733571841
-0.1901661966139378
-0.29335459814909237
-0.35667806813028013
-0.4106775495712629
-0.46138850456184793
-0.5129541471738739
-0.5927771268875804
-0.6460584795984623
-0.6942464605247876
-0.4874189032095572
-0.0831252740049927
0.3365728960294309
0.6445204281346201
0.8045495545475562
1.0925643372264002
0.9475444687185381
0.4949498242042478
-0.09131245801518026
-0.399259987731934
-0.6440377702908958
-0.7126264332158498
-0.8117351848904348
-0.9021071645850637
-1.0659867245489358
-1.2207433221119495
-1.366352343638969
-1.422146372477865
-1.1610717503175132
-0.196104057811839
0.6542389325199841
1.4757924566885203
1.6883885272641854
1.597374991514052
1.3630906534130136
0.8038480228397211
0.3064720117386166
-0.1630360547640487
-0.40736171775007396
-0.6119712758678524
-0.7117308451215576
-0.8310512408744166
-1.0091846674067841
-1.1296806456405692
-1.265982907173809
-1.3832867554680823
-1.2985222515240398
-0.8901722306680103
-0.13596022429500382
0.9025945309431346
1.8512977216921935
1.9074114134912235
1.8069980850273082
1.4275453969803709
0.7541178733176204
0.28095077461862883
-0.20536999770147712
-0.3880826229791074
-0.6174561638763986
-0.7610303921304469
-1.0545174578658987
-1.199547798193798
-1.3170651976065473
-1.4326880985306691
-1.5397970076465561
-1.3430231681038198
-0.6728514986522869
0.06349937030802866
1.1868107157250707
1.5541336559719185
1.6044575253461573
1.3403568055738124
0.976923302636094
0.25466815336047277
-0.20851359823462706
-0.5299043153824889
-0.7038208068342561
-0.8042341114138173
-0.9284786873461084
-1.0705332988523146
-1.2293997270102235
-1.4013766831889352
-1.552242929402966
-1.6380288139558794
-1.3773258303900215
-0.7417884005507406
0.16986462788764198
1.1405400172703288
1.598482509713021
1.540163839615017
1.2285452691145822
0.7389201760764162
0.27249915532248903
-0.3260760602656426
-0.5704231223064111
-0.7608868504474482
-0.8719492028216104
-1.0012678013257301
-1.1731752614408186
-1.3513899574574626
-1.4687278180743932
-1.6375429764076264
-1.667185084943337
-1.2038141488753953
-0.3427642621862394
0.7360093133067578
1.513051937891639
1.7451171497058224
1.6563549446273416
1.3158914466625287
0.8140849600371729
0.2745414814628422
-0.13936086713274534
-0.4370688770014517
-0.6674717393191529
-0.8107124486053648
-0.9341433317141487
-1.0648485353887747
-1.2161311618230002
-1.3841607749707476
-1.5306710453397112
-1.5564869654433724
-1.1434900379603012
-0.2580243094644997
0.7785981366951481
1.3710799093825183
1.7031839702444045
1.5454802155005323
1.1588441367613842
0.6653284642617997
0.15124743028847437
-0.29412562409762055
-0.5997476419756048
-0.7611769283461949
-0.8570399577403678
-0.9743949816229868
-1.1378156461168514
-1.2997077022963672
-1.4523746915765017
-1.4977273471977177
-1.1506653119983037
-0.35649583536076407
0.6095567861426637
1.3374714482691041
1.6323968835911027
1.5363680408711076
1.1258268698845924
0.5686316768944507
0.05650534447680122
-0.34973473463393295
-0.5836816047192009
-0.7137756684200948
-0.8403044959264097
-0.9887596354401752
-1.1425691811347047
-1.2934878393271916
-1.448281346308474
-1.4930190151195986
-1.3403178905863167
-0.5437190404704679
0.5064761373102634
1.3623399887122494
1.8414339028010678
1.8675122282153018
1.5194394824782713
0.8553979469387173
0.23146889009899624
-0.09635018490512476
-0.4014932076497048
-0.5536018710394819
-0.677960874704215
-0.8052044060798978
-0.9534896390484282
-1.091511204147021
-1.2440988002457507
-1.3488916244795393
-1.0779454668702537
-0.31265264523096303
0.6986974062418718
1.549799575418394
2.0539288986901694
2.1004567416605595
1.7883115582049913
1.214932339621115
0.6129404312374316
0.14484163464153021
-0.20151237880898598
-0.40661576941691335
-0.573511383383186
-0.720445952620954
-0.9051625596549691
-1.0616999100320255
-1.2314983729681386
-1.3936430296597895
-1.2569656992100833
-0.5886478004108434
0.42677594363562743
1.3290335609807147
1.7739572282766956
1.7067746294055557
1.3931333032210598
0.8429640598733966
0.21986583462926984
-0.18348781434607783
-0.4679307530948469
-0.6478192614053543
-0.7595676370393877
-0.8615233284766359
-1.0049130671667859
-1.1493751727794232
-1.3058796338137515
-1.350737317150048
-0.8618324609155081
0.3976658787173164
1.3207792627029349
1.6992025877958132
1.664411781340522
1.3616686520249015
1.058925522709314
0.12880435126585066
-0.086601921998601
-0.3020081952630293
-0.49756504602606394
-0.6495818218118038
-0.8286658120053154
-1.2162460120711358
-1.2857480832173556
-1.3552501543635675
-1.4247522255097722
-1.2933977370190335
-0.5679551923448242
0.12856080336570264
1.4736968605541576
2.0699436793329156
2.2191893
2.020026241995728
1.665493874261603
1.072573361515297
0.368514995195636
0.03783166438646701
-0.2310032361037055
-0.4140260477063129
-0.5754872032614484
-0.7896582089142217
-0.9706069205818113
-1.1441527106491478
-1.2690438519292562
-0.9262126895949159
-0.12198048066835787
0.986578122306614
1.8455152587829864
2.184396350320295
2.0690421486900714
1.6086087981818438
1.059806839651654
0.3874755014020995
-0.0039015278633064976
-0.3409109339143457
-0.5303082869970062
-0.7256151977302667
-0.8583472704746449
-1.0697222884902209
-1.2104496204424071
-1.2057046057521472
-0.6647142822931441
0.3619429612209248
1.2003340082030092
1.8079548510695425
1.8156459481792484
1.4418819474971438
0.9268543117525658
0.39016888779218345
-0.0456248639288207
-0.39483536817719495
-0.5916117404643104
-0.7455654237557049
-0.9304313407253195
-1.0588437062191995
-1.2742525667393294
-1.2934302459458322
-0.8571546579367681
-0.09401351924766654
1.122541279492499
1.8220545836266928
1.9693407981511115
1.7988180197357198
1.3938310869375816
0.7478286617452266
0.31584664567941423
-0.1718663020614641
-0.39474857526258555
-0.5977502153784529
-0.7479265333947434
-0.9455494509298592
-1.1069662269463918
-1.3247305914728713
-1.2711902286839516
-0.6110221014244306
0.33560232638107007
1.2594047810587121
1.9323626437981163
1.9892769104737085
1.7544327723559487
1.3018381930867733
0.5788806001343101
0.11258470801640774
-0.28048371320802823
-0.47797660788730856
-0.687640161416083
-0.8282187973812102
-1.0491273532786751
-1.1942829834196171
-1.3653232502898072
-1.0734418714385914
-0.2786369675008483
0.6572410487886214
1.6618088620850626
1.7816700871156426
1.6091511335065094
1.2354313953208431
0.5538663241104687
0.0752161725480942
-0.47494366537554555
-0.7358492465197453
-0.9390993669492809
-1.090404632637817
-1.229657822284657
-1.3938845635658492
-1.4976310143096927
-1.3574131355566499
-0.8207410243226172
0.11189189692680279
0.8628068298785834
1.2330486446562368
1.1998648801187832
0.8074034828191056
0.30227441022245705
-0.31556913705865125
-0.6534563837965662
-0.9319296428710775
-1.1189057169443213
-1.2034381356743504
-1.3206032847311977
-1.4857241080159134
-1.5688522983902913
-1.4032163856070405
-0.9711942849894346
0.0007929072684319527
0.7310386150325707
1.1047524422327726
1.099845761114261
0.7104040812040832
0.22213063531405686
-0.36042220161443916
-0.797525393574717
-1.019174803319482
-1.1461766102241386
-1.2574700680820365
-1.3483040977822658
-1.4446060518388182
-1.5222120701741975
-1.5141789656821156
-0.8160526948659451
-0.13994980706107607
0.9566715118668802
1.2765781631550601
1.193989954362059
0.8546329271644649
0.3549474539476497
-0.16637258903025684
-0.5673478808432637
-0.8886401569155076
-1.070485585002883
-1.1760847432629864
-1.2497032257490535
-1.317268272532427
-1.3900211928458404
-1.276846412263693
-0.6701672253754336
0.16136711930348777
0.9624253452500162
1.3234400464306957
1.252180080143223
0.8652049172659987
0.35170128125947
-0.1143998835313157
-0.5721387793668429
-0.8803859456506058
-1.0583910729227484
-1.1527772568459085
-1.2162511870577921
-1.2940851978192924
-1.337072611144071
-1.0790337913328192
-0.3453597875161663
0.4426362295062489
0.9469575408352527
1.0656519760261
0.7929134005851062
0.32433313597971025
-0.18821528145150923
-0.7319915374823361
-0.9556400658816478
-1.1000025579362493
-1.1666422291086846
-1.232073015307831
-1.2962693815296127
-1.38132860141766
-1.3072021756856664
-0.6936678052920384
0.027731054435390673
0.7828280916852848
1.0879843384214185
0.921899948542978
0.5793106457607032
-0.03746518291273729
-0.4657452735375797
-0.8284377854640622
-1.0181922153868403
-1.129994168062486
-1.1813631289460431
-1.2638505977949253
-1.3382690942611049
-1.2998562425275362
-0.91654153271047
-0.1616444346784382
0.719526561395611
1.2686585881160681
1.357175987434501
1.0964486795932615
0.6463121279577863
0.11772417847220071
-0.33968391947066
-0.6660600250255739
-0.9036001068549894
-1.039138748202656
-1.1085084980999995
-1.1791073687559497
-1.2320430687659536
-1.097007307850291
-0.563941597346227
0.2821198800261687
1.0276068823670113
1.4541988327962931
1.4198702276209125
1.0766511613120462
0.5608086383473034
0.0016001705560838575
-0.4235320613519902
-0.7152184145741717
-0.8561488938654056
-0.9478066709305535
-1.0204286808402383
-1.1082995166846885
-1.173238357412943
-1.007731241457969
-0.4305616840961259
0.36201748987365306
1.122251020135703
1.566229478691248
1.4993699873971664
1.1277326311041014
0.5364574151412451
-0.024389752076082793
-0.4600773600100566
-0.7533154124081244
-0.9026506340381336
-1.0053531853129394
-1.1043503096871528
-1.2063326668699141
-1.2872554014252995
-1.1559826034110878
-0.6275500163088766
0.20431903538159138
0.9513653323725489
1.2876948318301875
1.1286899806901416
0.6592336482103753
0.15118922435446613
-0.3397643847749929
-0.7040459603093109
-0.8920389321521118
-1.0020989789776658
-1.0731086614965686
-1.1570905601340553
-1.2608758000946496
-1.3209469394044013
-1.1121193909855986
-0.4742329677420126
0.39776368689881514
1.0734706733852666
1.3010038000000002
1.0545946074047954
0.6199739206440655
0.11160907994955238
-0.3319022395720658
-0.6005296495320387
-0.7922188180301442
-0.8759963540357383
-0.9560509512901667
-1.055256864345115
-1.1618301568289682
-1.1638471974519595
-0.8201791041128994
-0.03997573611335459
0.8506082603068088
1.478098041282626
1.6089989870784238
1.3510605764921289
0.8648394661002925
0.2909580075731025
-0.14769882276142968
-0.4691736148878323
-0.6927367441484034
-0.8091060766897988
-0.8723500613008587
-0.9605458861520417
-1.0511101552274278
-1.0719334846149873
-0.6899913996845604
-0.06757487339661139
0.8506996887126883
1.563942274097323
1.6906431059651374
1.4314393943648922
0.9131106853511226
0.27758453605796174
-0.1785577762851357
-0.5256807624485096
-0.731304509215309
-0.836042279255905
-0.9219301063163673
-0.9863618127377212
-1.0718117137712113
-0.9947052122892269
-0.5092159495401887
0.2308870532092132
1.1931509768156507
1.5312683814447179
1.4460762755951968
1.0554156082520862
0.5266470000703788
0.023833590553014483
-0.43202253484132347
-0.644283351412205
-0.7688957050719774
-0.84193511231666
-0.8820117397420228
-0.9722706931283773
-0.9805858352883322
-0.6025939667836926
0.21983156408262688
0.9701994778396579
1.6180389125760912
1.6957819325089962
1.3328932489830572
0.831743951992761
0.2772664806971084
-0.06591135917288146
-0.37693470170957766
-0.4851285340584976
-0.5834307046151836
-0.6615969595736584
-0.7683188477345482
-0.8310763165549476
-0.6263791522749981
-0.06998251084415674
1.0647558312898147
1.7241458395455247
2.10363383750165
1.9665988853172118
1.5277367658290442
0.9734656904348867
0.4511789603711058
0.13716125250109257
-0.10031267799433416
-0.26010199501303694
-0.3722490637892023
-0.47484469784485184
-0.6149165189913064
-0.5843644312940698
-0.027033064387026018
0.8206495287255317
1.7609957602750514
2.315271150449119
2.38709154803979
2.127732866323858
1.6156063552399451
1.0373985562922792
0.5485129539967084
0.16246880875682784
-0.002330965492476615
-0.14672421661359514
-0.28355734057090465
-0.42371976871657757
-0.5509952199301482
-0.31682383782147455
0.4116066263137308
1.346655336519638
2.106065794507833
2.308243460665457
2.13895297903402
1.594211941673896
0.8860734448973054
0.45405131165720514
-0.0030103949703586454
-0.15388897829224435
-0.3254023315506954
-0.40261210910642037
-0.5757274672667733
-0.6527243916736923
-0.3760663611517666
0.3047895648538341
1.6646092031943185
1.9792241881434434
2.250027986516126
2.0119842650809647
1.462085390497865
0.8903989258962189
0.3537205628149309
-0.0024206342472643475
-0.1889940716226173
-0.3443704499424993
-0.4637494333833717
-0.5895155153419256
-0.6699757554307265
-0.3682597292260375
0.5029083002567274
1.4046824994508964
2.234820555772491
2.406271620111149
2.2039775958089054
1.671268197165058
1.239490980307639
0.591205906341374
0.1102052930082673
-0.1784584963785147
-0.364356258303444
-0.5050539713212483
-0.6686595474371018
-0.7585378431399603
-0.4703004816255544
0.281237759556165
1.233739166421578
1.8475187463049436
2.132793438021133
2.0519420648756146
1.4841535134901818
0.7900153623703262
0.27188269418006183
-0.23899779772995575
-0.4721663143346735
-0.6985878344101613
-0.8357240069351353
-1.066813092476587
-1.142231820891055
-0.8388744219278204
-0.22635324568094717
0.8520227516183552
1.4377536915742062
1.715353151871001
1.4890558622364534
0.8750712524279516
0.3194643428568781
-0.34849799123647235
-0.7460416005869706
-0.9874391102834581
-1.1201697803272723
-1.2279962079505509
-1.3416871480770816
-1.3792769616744662
-1.125481027340269
-0.36233988228208913
0.573893253056932
1.1525575801101142
1.2143878592870743
0.9065287919507647
0.4780852895730564
-0.15713897013237174
-0.6243859961464189
-0.9583062050601379
-1.1257995441092423
-1.2148720630634513
-1.2842062437873856
-1.3636843622110628
-1.340945420232186
-0.9331436343888786
-0.14332383021704542
0.6606222096425446
1.2116935477928203
1.2736174048554927
0.9294017378521277
0.3891407208950093
-0.17643651074371672
-0.6796511923781192
-0.9992967973035457
-1.1645540119440212
-1.2408916525860971
-1.3366521627956014
-1.4309528234278495
-1.4743214049761704
-1.229271438062071
-0.4726851521551001
0.45790329511939737
1.0729247404767988
1.2343998020602305
1.001440200481474
0.5335571730976884
-0.031450844625447616
-0.578126976406236
-0.9341675779430989
-1.1397837922951732
-1.2343415422678325
-1.2846880140459787
-1.3407638691495305
-1.3728414448997466
-1.1141705031172247
-0.47527885141858583
0.34776166151052446
1.1265467557535296
1.3623884361253982
1.1871010673168312
0.7625034609419773
0.22893935470347948
-0.3512993233214645
-0.831786392539581
-1.0950884541965662
-1.2162348761509636
-1.2837908276962744
-1.3478807643166217
-1.4236606311489595
-1.2543691178597607
-0.7893859728564883
0.07877868316119133
0.787315151785367
1.1123225925437963
0.9579269190546669
0.5178685507125859
-0.03930609990994119
-0.5445983486871107
-0.9413326077621683
-1.1628528763233643
-1.2169472269550723
-1.2351457149225902
-1.2899059478601107
-1.3381904409492835
-1.1529949282998493
-0.5889885720218115
0.3058803887913456
1.0426839488529929
1.300919958647275
1.1140806956291185
0.6344161527232971
0.08268107475141154
-0.42440118939824234
-0.7955242315720064
-1.0008116320126592
-1.123697541811376
-1.174870586508521
-1.2119887957241693
-1.224713569040442
-0.980307678844674
-0.30203724847498886
0.6584952592476403
1.2994863007910369
1.5226200392532439
1.3558366531501405
0.9106228337292424
0.2985187321591061
-0.2552356815153219
-0.6109772654048954
-0.8251688320243075
-0.9411605540085572
-1.030075935612019
-1.1290564933822322
-1.1551089659917773
-0.9367724421989869
-0.19426496633567975
0.7029386063728075
1.3320531151098502
1.4707317983669101
1.2022373994389481
0.7308774163415284
0.10438123871091148
-0.35446068921158125
-0.7179710260280067
-0.9524919847797092
-1.075342698041621
-1.1492904569812084
-1.234975079925451
-1.3150038420069345
-1.0943993599557325
-0.4717306430584238
0.42372342188746703
1.1634848792854682
1.4376963936386302
1.2520134412573038
0.7282641533857187
0.1485590904864154
-0.40931969096402493
-0.7881349967657394
-1.0174201864373127
-1.1215918703275605
-1.1526911315815185
-1.208153271307474
-1.2861458126960434
-1.1428483076350615
-0.5404633024099819
0.277057647755775
1.0318347205694416
1.317755626661978
1.101702607454028
0.6286403301055776
0.08067333256612208
-0.4608329060022465
-0.8458353449280385
-1.1120670824163952
-1.2149295164526195
-1.2524634925206148
-1.3085201926987478
-1.379326573523705
-1.4196984404946276
-0.8914200728830814
0.10192727058342085
0.8325725098543627
1.3075312435492052
1.124200127761798
0.716484999121333
0.25038215820791904
-0.3280887017976776
-0.7045914485136997
-0.9229882882565904
-1.0220240390790223
-1.065619375876494
-1.1121458917929725
-1.1880748441645592
-1.1619348101652816
-0.7779459216052118
0.15739085155091226
1.0465934824438428
1.5384553624386867
1.5113293167329285
1.1699726889055662
0.6300021795539645
-0.0060848288376970094
-0.42962480132485126
-0.7537240433074768
-0.921733240371118
-0.9844947257815052
-1.0537141128617786
-1.1960148319022519
-1.248765275852381
-0.9414835934113074
-0.2837468662195961
0.6928188179183385
1.5331945826600524
1.7169878856377683
1.46917383055616
0.9137846747810803
0.315797837726494
-0.1443560507795168
-0.5850466801428744
-0.792877280822574
-0.8642372657036111
-0.9178410092162975
-1.0063246188031745
-1.0943951293613925
-1.0264836401757902
-0.6263502633051692
0.27242049012599856
1.2106783344655907
1.6943664760175248
1.6331082013558547
1.2321527567326342
0.7041498259856476
0.15174225788788842
-0.3065557127344064
-0.5966802571467845
-0.7414585911690822
-0.8344648806057264
-0.8854464696140166
-0.9863558162206972
-1.0180724605329148
-0.6693524867828606
0.1690892951624856
1.1823034968974429
1.7196856160070606
1.7524872852580686
1.3750368993684674
0.8784416506315514
0.3274627217436439
-0.14629477809832406
-0.44233871277330383
-0.6033415860705801
-0.7187014743317253
-0.8299334068746904
-0.9351366301246428
-1.0210249500326787
-0.7189805553613744
0.10907459195360347
1.0933385220926402
1.7810759618317014
2.097964021879523
1.8737308183577779
1.2963995326121294
0.7909349254659235
0.1817730966687297
-0.0659838523645511
-0.34535541416114635
-0.462246318083342
-0.6088199481926388
-0.7074060372019153
-0.8081443735482877
-0.7469712472705186
-0.15512289748676422
0.9698596220168213
1.7669098898162066
2.3872852747319775
2.342420648316672
1.9895831613177717
1.4656175396893558
0.7382225333303172
0.3289043886790393
-0.014452325271149535
-0.20443372947642113
-0.42285424074698746
-0.5400164885780415
-0.7024240621076492
-0.8495074264869787
-0.5683638789338479
0.24883733030994998
1.068567031182908
1.9880424630445872
2.473406338358544
2.3994852622009235
1.9683774574487587
1.3108912667971164
0.6902316573838166
0.25912386192001197
-0.026925747429920325
-0.25714153186592437
-0.4030393553308168
-0.6246914688836926
-0.866849453012356
-1.0331303559618206
-0.7925145776286212
0.017309824776075435
1.0294759964269946
2.004009626507487
2.2797338332749497
2.115150738754898
1.5429199413646488
0.9366673378987131
0.38040750303052817
-0.12564304531348025
-0.3610305221246224
-0.5874680226288317
-0.7589190951230922
-0.9526459646217825
-1.1490818639597866
-1.217350839493209
-0.9092711204050902
-0.21153016716818646
0.923652444146339
1.7683137267484048
2.0174096826921257
1.7408102157610856
1.2460565217826414
0.747650630851809
0.14669896873457985
-0.23464651945889944
-0.48373989108157317
-0.6507678673848223
-0.8557431023529448
-1.0445634558044066
-1.232116555909096
-1.2323124045173672
-0.7511777207114586
0.2499497777641001
1.334625140059828
2.0606050478653772
2.1885799975011606
1.8452093850628541
1.3855086454490901
0.684956405190035
0.17039589882638076
-0.2074907996789843
-0.4939693688863898
-0.6988437736705847
-0.8364721969671757
-1.0576059139809624
-1.2269153426358919
-1.188616597644266
-0.4328798788398779
0.5910464962598514
1.5317490400654554
2.070094189897834
2.0338693071996325
1.7232037696041034
1.0762990599926696
0.4838712008106434
0.021216325256280998
-0.29951483173961535
-0.5637087489092949
-0.7517122911256429
-0.9653504568807771
-1.1541860605250265
-1.2849117658559797
-1.0764955958316103
-0.42768905788487876
0.48206981139230054
1.6742255364456324
2.0988443722144656
1.967696948857104
1.4541448045174634
0.8640478322385566
0.17686878284050084
-0.34836738979810145
-0.6328885308084445
-0.7931117530030527
-0.9760158680768586
-1.1408247826966813
-1.283750221002563
-1.2337792157329102
-0.5024663590601264
0.2834640362953267
1.220641506453313
1.7497333450108803
1.8677388909630714
1.4894025205732915
0.8135123756826471
0.3242315058590493
-0.13264231356566897
-0.3521157670074589
-0.5701666497207754
-0.7121449455785853
-0.8797634320209511
-1.0074793359703806
-0.9823407446804524
-0.482183489609376
0.42095780506560243
1.7384866145221183
2.458704580088916
2.665274030369051
2.421738387903413
1.8969008123419486
1.3054695013071518
0.7206548307345694
0.3486277693127187
0.06887240967868027
-0.11534904589446202
-0.3428634784583908
-0.5167702491810711
-0.708913410055572
-0.4587171385525579
0.3210643199026919
1.5033550113330298
2.550321606916984
3.0997162957113846
3.141960449590616
2.2865817211196537
1.0348052719487462
0.6477387600260343
0.37261533224897897
0.18112059782716908
0.01939187719579231
-0.0944899444527648
-0.2272444054356518
-0.36730056330727767
-0.40275033431752044
-0.17304058768905953
0.2580989324327264
1.0163496346079408
1.484344153230973
1.678746736283146
1.6046308423495566
1.3517183161318824
0.8936247024016395
0.5446414969595539
0.24191188477199943
0.02990869184611259
-0.09152822497888502
-0.23888536516908737
-0.4213184310843956
-0.5565111771876651
-0.5232003336015234
-0.21703044159189824
0.2942178371242562
0.833867535883377
1.1803292483109051
1.2143804676680758
1.054034617257021
0.7572865571487941
0.39491143593165434
0.06089034971172169
-0.1720062978741831
-0.33765582203679684
-0.4717574857520016
-0.6015847595293959
-0.7182499940715887
-0.7784683114963484
-0.6645451903940272
-0.29811053225268236
0.26275891977617616
0.7237185040763731
0.9613042393251418
0.9369765787141424
0.7207101908401625
0.4079578108920148
0.02696889072568398
-0.23194373321741565
-0.4067066738545066
-0.5217576618492918
-0.6277618118920232
-0.7268662621188511
-0.8370133557783219
-0.875885751280454
-0.6602189815241982
-0.18488619912043053
0.37545792164692043
0.7696723637287226
0.9206623198783391
0.856306549690962
0.6109881226473791
0.3079974993193031
0.0011581121966280222
-0.28894064267209724
-0.488394413556949
-0.6206853813449613
-0.7245710689925312
-0.8290308418215806
-0.8791726217330239
-0.7314874469406636
-0.4911363279641228
-0.2344016637370813
0.5890834327910917
0.6979886171330274
0.8068938014749869
0.7978461235286777
0.5316320383709878
0.28154578935636054
-0.07660483435386918
-0.2931394291499502
-0.4482688513366512
-0.5947853572239564
-0.6838848393259197
-0.7782746741213489
-0.8436994734795389
-0.7438307913501656
-0.578232254993053
-0.41263371863597653
0.015113508604161774
0.6145990117510859
0.8653940252889823
0.6871596377767791
0.513306655903448
0.30957165992015084
-0.06618827434721634
-0.2803899443670193
-0.58827069694734
-0.6414209719552715
-0.6995401152852501
-0.7731631517283983
-0.8438674202624482
-0.9567080673902019
-0.8997222851324373
-0.5862999869464451
-0.21529120029500715
0.09807470995761075
0.6487982996172077
0.5665083686995239
0.3896172300221412
0.19632161351658567
0.0030259970109880463
-0.1755367709761616
-0.40509493576605604
-0.5398656915755728
-0.6083937561622165
-0.6650147626244299
-0.6984778062438828
-0.7995553530161562
-0.9105738783482116
-0.9440315913672392
-0.7665472152202288
-0.3944251341394963
0.19467966193454866
0.7509059673399651
0.8147892260320457
0.691159509920387
0.42273601724895626
0.08733918488542136
-0.11681821309443453
-0.32253696926492625
-0.4179563805690149
-0.4937645898835004
-0.5457525726939427
-0.6416337623093438
-0.7397234194061723
-0.8060006387678045
-0.8440185932045233
-0.678514035424952
-0.24108419226122513
0.3709946361530745
0.8906819597161604
1.1098634512882433
1.1037555428722268
0.8894289454409062
0.5546491718047399
0.22119445900651558
-0.018142780739040326
-0.17009139200224066
-0.2786585243690019
-0.379376908192846
-0.528530848935568
-0.6357788882837456
-0.7270026634338305
-0.8074420918453022
-0.7506809782557929
-0.46479609914198844
0.04264476006579976
0.6701849929915761
1.0659274805352654
1.2405249100535902
1.1253190067688121
0.8083353961003553
0.44926330231516226
0.21191653359472298
0.022572623374595216
-0.12106184758321623
-0.273515278783575
-0.4155236059074932
-0.5355701571956684
-0.678287867571115
-0.7797437029278984
-0.8324945695364848
-0.661738760806706
-0.25072174236354405
0.3118446421220028
0.8286528957979603
1.2423163621320004
1.159010366094013
0.9029437655338535
0.5973470986916789
0.21300217223106044
0.019132156917686077
-0.18292662582109792
-0.28333993040066346
-0.4409656930541071
-0.5416172027257954
-0.6353362907153965
-0.7678376805017193
-0.8831730303655241
-0.7674968989040486
-0.29526108661819034
0.3567130424240354
0.8775367926578752
1.1850468066553927
1.1871319900565453
0.9118065524012682
0.5942124583842304
0.2584621606502225
0.033536346688717494
-0.17060854516996993
-0.2878382065121439
-0.37478244571364755
-0.48873731414197197
-0.6015799203784025
-0.7277795823800962
-0.7898714684930814
-0.5452165782365485
-0.010282444842310556
0.7526897904568091
1.22796609298691
1.5867762440697464
1.5593325384480083
1.2639509354587126
0.9794599729328917
0.602910517880973
0.23281645560500516
0.0888090740523429
-0.055024730723196746
-0.18556202986120673
-0.32184708023782355
-0.4696229883369775
-0.5793566085651477
-0.5142863529199789
-0.13209141431755608
0.3498924588103691
1.1549454322236505
1.5561088760309838
1.7855107612786036
1.6817637342577323
1.3110259000993525
0.936162949917456
0.4764055301660046
0.20546339667092461
-0.006867196601051322
-0.13380295086515506
-0.290019545724433
-0.43348512565269137
-0.5628094223689167
-0.6885836138459898
-0.5512473013023763
-0.14404797997086127
0.6176372377246193
1.1799654780001307
1.500496130200656
1.5210930446164435
1.266641422483742
0.9374816743459902
0.437199381309759
0.13548335510506998
-0.09886190123972356
-0.21935787390050315
-0.3640152478263216
-0.44830855330527675
-0.5754965471554676
-0.691875073212464
-0.6566952033683209
-0.3178491910802783
0.2678265959019697
0.990605118462172
1.461682794256122
1.5380650087351002
1.364289903492541
1.0028020324826405
0.5445584591856477
0.2927349568741965
0.011335050595191482
-0.12333285812254835
-0.2575994949526946
-0.3671264257831521
-0.49843804988980855
-0.6248003486862782
-0.6856232548281883
-0.5021741308300962
-0.02768746086195517
0.7451202086979125
1.3678856431853075
1.664605764695681
1.6169924693124276
1.326615779752381
0.8809436587243875
0.38922238804822396
0.08098408079090356
-0.13561899556954532
-0.3207520994872683
-0.4565440440333435
-0.5823784983471696
-0.7547109054164477
-0.8665992880617867
-0.8067114561814124
-0.3781333132268364
0.23611190026336695
0.9077425223689672
1.4305218517692255
1.5505828797420749
1.352276029908525
0.9799885981679126
0.6021685766876718
0.1197824548420986
-0.13285646089052222
-0.3920526642578136
-0.49720053737377873
-0.6636001672438123
-0.8122228373484717
-0.9575776100973936
-1.0187964355094268
-0.7997044146452488
-0.26642330504085576
0.41145647448248884
0.9482149079444513
1.2586794627986106
1.1925975076490722
0.8954931518739835
0.49408617364342666
0.0602328497588048
-0.2321534200163074
-0.45467962525341726
-0.601647211784406
-0.7059559698666694
-0.8099926722610084
-0.9295540141241321
-0.99950477
-0.8929408966000657
-0.47815491982188
0.1971472656037917
0.8439660940598295
1.2297082670008963
1.2538206924675264
1.0580163189300054
0.7229190265950862
0.3495832064817029
-0.003682658017168508
-0.2586416442377498
-0.41047211170781905
-0.48758249993146224
-0.5600168279752881
-0.6757255206619254
-0.7979623498310805
-0.7724648428566299
-0.4151940215053893
0.15215993001785694
0.8728217050360736
1.3856775070473417
1.5789512708543112
1.4651199413391185
1.0822993567373183
0.6916863643090893
0.2969825128292808
0.009100553613629228
-0.19338753833293004
-0.33864273254169813
-0.47843889058706746
-0.613559346274241
-0.7428030575191764
-0.8274568150434735
-0.6962393793673712
-0.2654926826075452
0.46057753563139897
1.1060223062918213
1.4715368747563893
1.5067433882786907
1.3421071361139338
0.9238274078802035
0.41234857935015706
0.06499185634176138
-0.24053613175031424
-0.41195244157872957
-0.5563396203773203
-0.7024984538844853
-0.8413228876415546
-0.9639490952061966
-0.9968071202430232
-0.7459572692760819
-0.1817228940432346
0.5476877719390355
1.114445383725765
1.3217730295974295
1.227938231110163
0.86316432887376
0.40005221254143475
-0.015420695620051772
-0.2745638797146519
-0.47302783075141097
