0.37335259
1.0667528829286048
1.7005914851858948
1.6488273948402403
1.2525689660034667
0.7293552638105927
0.11196696896055858
-0.21951775322442096
-0.40505733847025616
-0.42385835838559516
-0.3674853191701305
-0.3588307978313305
-0.4071125327771209
-0.5400811621955315
-0.5570414897346901
-0.14712703596232457
0.5399473813981123
1.2969727641692959
1.5823611548880072
1.431890315963584
0.9434085004735897
0.5645291606739543
0.053429247551661285
-0.23231674441683448
-0.3755919119937144
-0.3783782561266736
-0.34984647
-0.35494865919086516
-0.4293563704808241
-0.5008991010253412
-0.34805014493146813
0.1783173076040659
0.8841967463483345
1.362287617229225
1.4428609237566532
1.2044462963882896
0.8221850135876232
0.40975386556455085
0.05821054681018792
-0.19767441896683627
-0.32621967592533774
-0.34984647
-0.35477454602622793
-0.4045195246094883
-0.508558591259461
-0.5595394681143955
-0.29258702275147835
0.26712820652213387
0.882868226814886
1.2079162868149929
1.210732356578974
0.9310135871606839
0.5794809515997084
0.1989631310868025
-0.11059484981291165
-0.27127918637439574
-0.3359876663657614
-0.34984647
-0.36441640836073924
-0.4138918178012077
-0.5216660934957053
-0.6206967523238082
-0.49765620081178863
-0.08897375439163735
0.488576145843198
1.0036593517400496
1.0752042388874752
0.8903726677394419
0.5517216878584108
0.13965703119905154
-0.07811690501123711
-0.2344878568868068
-0.29656714504393145
-0.2833834423793685
-0.2965121100093017
-0.33573037933292793
-0.40519727074789413
-0.4892673996859442
-0.5615965478354514
-0.4337641678537368
-0.00948597671056911
0.5605803618844888
0.8778882141898569
0.9204671228493644
0.7007171286533495
0.3285148300273234
0.05828037059229113
-0.1663108213683729
-0.3081949928089848
-0.34391827052830626
-0.34984647
-0.34984647
-0.40279322123193106
-0.4906349257748939
-0.551913375023191
-0.6686229140341649
-0.6770107100166539
-0.3582703692343276
0.1720117244288238
0.7475552444938178
0.9982747475577899
0.9267723164246331
0.6622711121971083
0.3267326953898992
0.03800952627643708
-0.17355405101313426
-0.2879240080796211
-0.30318846
-0.32526976744600633
-0.3686164368001479
-0.44309558734401383
-0.5526500315500655
-0.6422899867052758
-0.7343230797788295
-0.7748556179179364
-0.617939969625545
-0.1258604018949826
0.47721037290599866
0.9657762436188455
0.9879822306180451
0.8089926684381559
0.5288384414607141
0.2124963742192858
-0.06653730816715706
-0.23662245067217214
-0.29604008241840896
-0.31390154454561603
-0.34009624181979575
-0.3696322067518054
-0.47489194244486316
-0.6182252626213555
-0.6955685196218574
-0.8098585473968267
-0.9226205944287709
-0.9463153379029715
-0.7605016516633679
-0.23652903404899012
0.47440061221804347
0.8496604441967281
0.9371348324468233
0.7018900691051854
0.38565829250637124
0.05692855422768078
-0.21510167737225905
-0.37609149392730856
-0.4055422923779702
-0.40284430878863153
-0.3996021311459584
-0.43516642817078954
-0.5066424398098115
-0.6067137927418024
-0.6870731986595547
-0.7787392085870499
-0.8155278334310648
-0.5899694964892338
-0.022189150754394094
0.5115434833871539
0.9898873363469312
0.9063093235590293
0.6539973733148576
0.33549927041219935
-0.03383119509843653
-0.22793610728322924
-0.34984647
-0.34984647
-0.34984647
-0.34984647
-0.3930010999806882
-0.46061736508757445
-0.5733680493171851
-0.6420877501359131
-0.7226015041989418
-0.626768397464226
-0.1958624595641154
0.5173535245200055
1.0214115834104918
1.1577325673156935
0.9619724403013106
0.651992265457768
0.3638755177189278
0.0047690253470259215
-0.16755669237127901
-0.23361927957279116
-0.2565710066446234
-0.2865614142493171
-0.33248568455914973
-0.38172638742603193
-0.4789220436059959
-0.5884180399326218
-0.7310304608133581
-0.718913168526953
-0.41675217515389423
0.24705969263225502
0.8298588286801314
1.1330862199982443
1.0837045617037753
0.7851580035749263
0.4992375453446139
0.11744458992116105
-0.08304308551108612
-0.22901254858959708
-0.30489133636819477
-0.328063509900351
-0.37587649009620916
-0.430323341496503
-0.5198057686500284
-0.6431387070318569
-0.8000322304853956
-0.8229985751522826
-0.6021930224253383
0.04063450454041363
0.6085588979960077
1.0037769836500143
0.9655541655813025
0.701635628901548
0.35581658995571097
0.01225122527051438
-0.27422964532949134
-0.44592552249001866
-0.46855079537604244
-0.44316247
-0.44316247
-0.4485762897627346
-0.49780324823002925
-0.6194922776709186
-0.7221757721104478
-0.6187910601392546
-0.19845049450210483
0.3423493392227022
0.7958094690627968
0.8698506663772795
0.663467095388041
0.38006672601534686
0.0067931361936217835
-0.2824059905503949
-0.4351719969701681
-0.48097274839192533
-0.44316247
-0.4508446838538309
-0.48326082752068544
-0.5593643847865677
-0.6610224015274588
-0.7126146539704346
-0.5398098272386102
-0.07596382211496333
0.5112633650175177
0.9380273462358493
0.956261143207402
0.6962431186121475
0.4362353300276784
0.026318506664740754
-0.19133628145869266
-0.3777385570099794
-0.43556254992673893
-0.44316247
-0.4484614816033609
-0.4681804974525911
-0.5321215067727716
-0.6212859706583123
-0.7092304920873741
-0.48998773225779757
0.009156201504283312
0.5995133393377172
0.9834231646449076
0.9328433122441715
0.7113454574199404
0.31530728826448545
0.02213976860716492
-0.28258820839622384
-0.40356892706803443
-0.44316247
-0.44316247
-0.4448801722190843
-0.46925119721054753
-0.5369845020209916
-0.641569696824587
-0.636060427996344
-0.3233307512728316
0.20028696267991344
0.7155534176282115
0.9143797980575148
0.7992326682251905
0.4967180793439979
0.1399602823630314
-0.19306404374898717
-0.41606948815626327
-0.47052622171742947
-0.44912968755554267
-0.4355953706515422
-0.44192002293639693
-0.49854568030069757
-0.6225402525844753
-0.6186633678737166
-0.37433878859264325
0.15054400134545737
0.6471767808842575
0.8678155835882594
0.7391758291495756
0.4270948605271803
0.07873064954871814
-0.21296005655191075
-0.3824202693238872
-0.44316247
-0.4309710987251515
-0.40565620815335335
-0.41490772920163016
-0.4781310658437697
-0.5436457992549806
-0.46989304030385054
-0.12684217096848557
0.3719274827427881
0.817672686816717
0.9415549380604968
0.7663159278055709
0.44883076346823986
0.0760565662532631
-0.1897330289094415
-0.3537179585873559
-0.39650447
-0.39650447
-0.40049619665318525
-0.4225199345618897
-0.4831843820708269
-0.5401376281076634
-0.4315048557407136
-0.03191110725701424
0.5094307822048454
0.9005581418029697
0.9067135886485431
0.6909948603785241
0.3646742961211746
0.06485968525636515
-0.20381232793309326
-0.36286564176263486
-0.39650447
-0.39650447
-0.39650447
-0.4197104994081777
-0.4939896102425292
-0.5770244235927657
-0.46751549581314017
-0.10769360807575068
0.4389551011057487
0.7776743256699982
0.7938541013141417
0.5603869659276022
0.23400149627542643
-0.08548425018417079
-0.30702795175603004
-0.4099679403482578
-0.44316247
-0.44316247
-0.44316247
-0.48253920921411947
-0.5733188729510015
-0.6497454890069899
-0.5399881958334014
-0.11988682951834234
0.3499460587800527
0.6923743492782005
0.6676234871074292
0.4211112929395172
0.07764569341169164
-0.25022873728045236
-0.4624418242796518
-0.5292787327332891
-0.505724012017922
-0.47230031153846985
-0.4676484480559598
-0.5023670031176947
-0.5744791470617386
-0.6137853314627136
-0.40378676166481386
0.01491351738909874
0.4483495615730818
0.7707806046053889
0.6688683514587893
0.36332685373616125
0.048129587998633816
-0.24525211725132878
-0.43353630262078496
-0.48982048
-0.4715340856303829
-0.4525851063326866
-0.4537418266526939
-0.498606995450237
-0.5810271489233648
-0.5338998976034928
-0.25711799316306594
0.18188782531104442
0.6215126293077637
0.8134448932766835
0.7018544890566503
0.41101983665387815
0.06698250998400535
-0.2285921925845505
-0.46325750583961267
-0.5227615379784247
-0.5307373435139355
-0.507789573244512
-0.5221853575486205
-0.5933845241221622
-0.656816835567878
-0.5667667518558128
-0.13949852389093564
0.32688943552394445
0.7746157302433241
0.830431210914364
0.5936347631393584
0.24191872773988218
-0.059014102890445744
-0.3538359711107243
-0.5135519226292458
-0.5580272019014132
-0.5246781170846028
-0.4948844601991182
-0.5129210910922704
-0.5753465678027956
-0.6387926161061316
-0.6107560838605384
-0.18583188804285472
0.3134801143584321
0.6567164363453052
0.7335230391633972
0.5084611262074503
0.05224560470671072
-0.2128123183131887
-0.49400762876440446
-0.5723701954003287
-0.5512228626260121
-0.5081116519920001
-0.491651606272415
-0.5060525693137407
-0.5770692639289206
-0.6330018534932144
-0.36747842562821015
0.009061331674785622
0.5472483112960954
0.7758668558537731
0.6674543713095485
0.37741303953657535
-0.005244720466004216
-0.26432625397864556
-0.46706608370665514
-0.48982048
-0.45456098168376446
-0.41233901837796505
-0.4254149028429253
-0.47226312886107163
-0.513922971116411
-0.3560676454803873
0.07916618803005926
0.6334776536065005
0.942867537125847
0.8269338713246006
0.5196638461396501
0.18799446558332866
-0.08676795707879928
-0.3189500356908737
-0.4281556656749923
-0.4001890926835041
-0.3619229483011166
-0.3863717129634741
-0.41246277635803713
-0.4588498305701752
-0.29702487200008915
0.09764473392568163
0.638563384630062
0.972437513910968
0.9298390960528475
0.6456477171027997
0.3691206389877221
-0.013879980324232377
-0.2518788396115462
-0.38725922947711305
-0.3959265781257984
-0.36010191451481893
-0.3601818358723508
-0.41218592776447116
-0.4795095137743425
-0.41717027780523475
0.0195794956428072
0.5415430275547227
0.92858283
0.92858283
0.715452340357973
0.3371353451348681
0.06474532487813994
-0.24668469944475166
-0.3797780336854032
-0.41963320358772954
-0.4016317608231064
-0.3977301167574129
-0.4163030067188805
-0.4880184854157598
-0.4322998075700563
-0.04719795029717072
0.3429506108929223
0.8881631303357544
0.9067360202972241
0.6700952713973588
0.36055946660015575
-0.02743354508628707
-0.2688811289157116
-0.44316247
-0.44316247
-0.39650447
-0.3974811126615245
-0.4075932711199386
-0.4501822476387222
-0.3885416328533307
-0.08233803024893607
0.46251032398633035
0.9132499556340108
1.018813386357053
0.7834724779086563
0.43484541784233305
0.10707706832028209
-0.1655290447164949
-0.2951220965418161
-0.3015920948941312
-0.26586206
-0.27276864418129143
-0.31897365022896906
-0.37920474033416623
-0.2760697743818297
0.055720166352399396
0.6681689899997951
1.008684349776614
1.0392695613867236
0.8194779943207535
0.3922980927172688
0.11990806784301111
-0.1553280921669009
-0.2557787278608855
-0.290408811973503
-0.2811223669927692
-0.3017883792278021
-0.3514153550682668
-0.3326538589023449
-0.1446438506641611
0.3246867676905736
0.8320371986649423
1.0247554917385255
1.0066290260770174
0.7312960732865977
0.3399476637222597
0.054559335800641706
-0.18862008448735074
-0.2974923851167348
-0.34984647
-0.34984647
-0.36640510255524067
-0.4304845231774907
-0.39616204625397844
-0.10967533584594477
0.3945487084254484
0.9200704762419784
1.052539753298395
0.8902741264554302
0.5495032679268113
0.22224586228443918
-0.04530882506437519
-0.21650174375883557
-0.29442349438994186
-0.30318846
-0.3096145750567016
-0.34258019536054135
-0.3699925222812518
-0.2564778713250686
0.07969633259465082
0.506823476402078
0.8909497285223377
0.8950700387397394
0.6486609571347337
0.30956675264761274
0.013975993350934288
-0.17085061442136262
-0.26226005261600394
-0.2718848460637141
-0.27397469412590447
-0.3261186778386437
-0.3834794921295327
-0.35446074803995914
-0.11698294692754127
0.35159569845358246
0.7527555719199317
0.9113341328270875
0.7684537023204874
0.46511143801380167
0.12609548580485758
-0.09532057739143385
-0.24806806735546072
-0.3197887373307388
-0.34984647
-0.35506215346891284
-0.39083296218013636
-0.4031069493264582
-0.2605223530808512
0.12310712348611101
0.5964654762753148
0.8623152711789056
0.8273437584443423
0.61926895790246
0.32106643912700217
-0.02006790174176927
-0.2345534215596877
-0.3546762853961931
-0.39896487050049
-0.41204618608511845
-0.46109462580486626
-0.5111197858323806
-0.45757570587922425
-0.21283438826238132
0.26211444674425
0.632294925230751
0.7669178680533688
0.6372437537853634
0.3265413110499788
0.037903853042434835
-0.26127068725670194
-0.4251530547726527
-0.48982048
-0.48982048
-0.5019234077399247
-0.5366289368356095
-0.5728717665081549
-0.5021934821155875
-0.11617539860433948
0.35622271723362675
0.7005257067606343
0.8785941766727003
0.8122909468256834
0.17435257019298867
-0.3974180058736774
-0.9055167843992559
-1.1483546179128845
-1.1649078502569548
-1.1056660398114029
-1.112969470689431
-1.1681806524875478
-1.1454576679790878
-0.7949492011977223
0.12365503497279606
0.9323545897588881
1.415607000460443
1.25456531441069
0.7244988725764393
0.059962571056306035
-0.4620802123465793
-0.8478244747062513
-0.9321743463482252
-0.9054707391560632
-0.8834732768056823
-0.9354468322791204
-1.0017774206553924
-0.7967396644950275
-0.1618996191927325
0.7615802898847344
1.4788827240601077
1.6204927017904265
1.220487421724792
0.6106411815597792
-0.011577213074017989
-0.5184871674959164
-0.7881003824244088
-0.8529209722842305
-0.8630844999999999
-0.8773583411816905
-0.9354198925943518
-0.941130364372672
-0.5394068682391789
0.19455022263561822
1.1381499914367383
1.6966999828706713
1.6215953809903507
1.1676522258504056
0.5101357272128806
-0.0761224209427378
-0.5193025518973929
-0.7737096217994807
-0.8553323512460773
-0.890393297146305
-0.952942457005171
-1.0440410053622642
-1.0498899005691047
-0.8154628083013391
-0.12404472201559635
1.1621940303346505
1.621471986190426
1.518812664255356
1.0240876277340434
0.4173194376387576
-0.21844605689486157
-0.7403552706892895
-0.9581053629617385
-1.0147643513659026
-1.0030585
-1.0204768557147592
-1.1152646422677195
-1.1974560956347737
-0.9297918992853627
-0.23709738496010352
0.9081119842766483
1.486461421191632
1.4238024174934312
0.9646321948504109
0.20261397271917975
-0.42566832960491047
-0.8641189128040462
-1.0370169936147402
-1.0126959861330698
-0.9692521529377508
-0.9700088242979655
-1.0067492394854196
-1.0417236312198925
-0.7464300097327599
0.05560295725004405
1.0804484988443313
1.6996993328517764
1.6621697456976754
1.1963027932141244
0.5469235252133842
-0.14644503301909634
-0.5915971497168658
-0.8282174095457102
-0.8854885665760603
-0.8700846618685979
-0.8705018807737449
-0.9420743119404678
-0.9515535795334218
-0.5641388221989317
0.3170726940974819
1.4567775412655806
1.9479897146846523
1.856568563538287
1.3856135076123088
0.6164875617093571
0.010822059748405333
-0.559109966795873
-0.7901462639832525
-0.8577792319679143
-0.8630844999999999
-0.8709571392203205
-0.9756030247122558
-0.9804249370453323
-0.45716687238095066
0.5656123017767456
1.5782470285249932
2.067406193509405
1.8929686581539822
1.4410536424389506
0.7248360704934286
0.08942732689070143
-0.45472672637887573
-0.7671101850258513
-0.8394135064303883
-0.8616763872057714
-0.9053743615653256
-1.0299494718691766
-0.9807431988418879
-0.41548871859993053
0.48290793709787044
1.6456809010046376
2.028245725615342
1.7864526305913258
1.175881912471016
0.46222395158851093
-0.15623953957608583
-0.596905161968335
-0.7899635978125433
-0.814374067255217
-0.8247904888836967
-0.8784570366808153
-0.9799058244269805
-0.8077160083330971
-0.051872397211830235
0.9095591964585257
1.868642798364125
2.041356734582385
1.6493302530059284
0.9613093735321019
0.32812019736863185
-0.18108436860118204
-0.5085635813120343
-0.5699833110043805
-0.58313648
-0.5942815913653461
-0.6946393665053145
-0.7314459795286699
-0.2460445546304751
0.7883698355371237
1.7924679201030052
2.2681738813934076
2.2248175353370363
1.7226658243496251
0.9976726097323189
0.33205343734229886
-0.1359834175512456
-0.3704308660735265
-0.4905432035128034
-0.5165452494588635
-0.6105603377684543
-0.7437029081864691
-0.544353879978525
0.24215323384204798
1.400885755427394
2.126454263516363
2.2907328961897586
1.869592490747842
1.1144662104018415
0.47555309789286504
-0.18304596221440628
-0.4874601831224205
-0.7115459902371725
-0.7754370249863471
-0.8515405740967742
-0.9753275615272061
-0.8675268793190393
-0.17270564728173055
0.7955723957123678
1.8903410668433571
2.274371283892821
2.039831559380579
1.4213370978836828
0.7732860294494537
0.03551489611136552
-0.46956992939806397
-0.7049328547664627
-0.7967047914694438
-0.8708402390357088
-0.934845283784321
-1.0546969125951013
-0.782616929748383
-0.09456274457013791
1.2709792614287243
1.9072820145935743
1.8992813850717112
1.3440565208343802
0.8314446862462661
0.08346972422693344
-0.4744082670436564
-0.7528329090059351
-0.8793625915054094
-0.9154778406462115
-0.9816922765256946
-1.0558963820764795
-0.9239573064822666
-0.09501219108174125
0.8196967780338086
1.8070475087104854
1.9327616123798108
1.602021729426394
0.8485765733557399
0.18997489359725947
-0.4916238119810951
-0.5587903524883995
-0.6259568929957111
-0.6963117204086148
-0.7763237367316586
-0.7494737692042871
-0.689053278624391
0.01760627720430885
1.2243791518947593
2.0376144903362605
2.069426142772874
1.7351141234663916
0.4390691057476583
0.09089205372287779
-0.2572849983019027
-0.48153613311108967
-0.6831019457374751
-0.7202477256604216
-0.8282319879904011
-0.9314170561362056
-0.7456881405989122
0.042825957326135144
0.793523021935308
0.5953475600315078
0.3971720981276861
0.19899663622388597
0.0008211743200857713
-0.19735428758371432
-0.3955297494875146
-0.5937052113913147
-0.7871542436806652
-0.8428729215263516
-0.9466942614861011
-1.0637443567507474
-1.0194313775731116
-0.42260772278859243
0.3130472885132187
1.3295226107464533
1.81603167991103
1.6117298903348865
0.9373833404738943
0.4111921954931131
-0.29916560013227056
-0.7004698135338243
-0.993124424467327
-1.055046442783382
-1.1210543020894241
-1.2017866908060812
-1.2711506368481205
-1.0705073831371488
-0.27803926012431457
0.9682144829568096
1.486997050174315
1.518732252988666
0.9937873220439218
0.45665777106668065
-0.28211078036483683
-0.7661246788031674
-1.0120975623919173
-1.0963745
-1.1098349512052026
-1.1651569975702085
-1.2274462277959552
-1.1029511172624358
-0.4700255925203747
0.44123470221969785
1.227686432473688
1.6117110509488406
1.337952129272327
0.7029816768755236
0.023494180728829445
-0.4398720730851344
-0.7213045335397656
-0.8999987962947779
-0.95640051
-0.9647934398336379
-1.021981413210253
-1.0234613204695266
-0.6529998015719418
0.2127261112961239
1.0959994857028375
1.7374742374580086
1.6709368536296496
1.2362750506121236
0.5477086536735336
-0.08890615764855798
-0.5264112665309255
-0.8325954704710716
-0.9174320685304457
-0.9678218880644938
-1.0590511380166527
-1.1212176768049182
-0.9928424818245352
-0.34363466012773464
0.6541768784078437
1.4371264564175386
1.6881063615715595
1.438224294214315
0.8956538634860602
0.23190158728601357
-0.3883924238477573
-0.8088186962298012
-1.021403169494476
-1.1066351905175458
-1.1640384999634414
-1.248623997998962
-1.2875694546894656
-0.9415002014666563
-0.10005987933395433
0.8511106751526558
1.4928373736073723
1.53014523956615
1.0969530566593628
0.4637423382436323
-0.1367767879559258
-0.605163346718195
-0.9354088437851638
-1.0739846083055649
-1.1175682117637955
-1.167264323657814
-1.2339199286259979
-1.1920083079755242
-0.841456540199219
-0.0720275392054045
0.9079958168846252
1.3915327861385507
1.2330211822040047
0.622523014960778
-0.10774424861495388
-0.6525731469783833
-0.9754926112742985
-1.1303158677152878
-1.1458104468084376
-1.1138320626155827
-1.1338518760836511
-1.1557870095734992
-0.9464724275564497
-0.18985732320952686
0.8102500776995992
1.5086325872020006
1.5922846132420858
1.190888487812496
0.5385910189408918
-0.0805169999983475
-0.6334124272044764
-0.9217652103012515
-0.9948053734249436
-1.0030585
-1.0332753448047178
-1.1071612661396857
-1.0663374863573607
-0.5493214013473153
0.3209524441741368
1.2986737741709975
1.755980081630981
1.5631302302378616
1.0510890980390788
0.32243403021280476
-0.2981015182898369
-0.7167893024063262
-0.9653291544284236
-1.0333995797687798
-1.0732974364470145
-1.121092810349802
-1.1890432570983163
-1.0202289270798917
-0.3145110442028385
0.6590216026780225
1.5325192779915242
1.7952761084037945
1.594500244349387
0.9490267334642912
0.17300798168603893
-0.4600347357532144
-0.8978236297711881
-1.1203882536483598
-1.1844980480212275
-1.2166725639971936
-1.26917252678745
-1.3085132782360682
-1.104126979961222
-0.41258972726271914
0.6172352672248176
1.4897901522967727
1.7192816767327221
1.325264779846849
0.629787972858921
-0.03980389988812266
-0.6652833715584389
-1.058287986829015
-1.1790258606896618
-1.1692895085309045
-1.1621747956808666
-1.2074746550180164
-1.3020224492375996
-1.1967512866444434
-0.4215093415366934
0.5421604502958866
1.351391820453248
1.6913496462783597
1.1728905823299174
0.3680780319815354
-0.1900273813036631
-0.8840664420903271
-1.0980730082051855
-1.1020778561798974
-1.0522302136969082
-1.0385235911206314
-1.0714757116757714
-1.1307261478528785
-0.8090421043761185
0.02421007390081442
1.1397570476215335
2.007988867590694
2.06927234486716
1.6548272756905416
0.8907773424724855
0.08851369045867696
-0.5320176214724585
-0.8768595989392545
-0.9831238195978371
-1.0030585
-1.0030585
-1.058522907958758
-0.975050022155685
-0.3382414501706762
0.7358809810036759
1.8156073460590831
2.256358531786848
2.0345470108544648
1.3833578043884622
0.46405476302004556
-0.2331210119900446
-0.7982841307260995
-1.0170981379834403
-1.0826047774625838
-1.0963745
-1.1222503784328812
-1.2007190443401312
-0.9701325287124067
-0.07391604461064882
1.1119386477064643
2.1153042980998933
2.295181249964785
1.9003871045829226
1.168759051870135
0.2762350409655505
-0.3762995341868178
-0.8524314759253577
-1.071434615646604
-1.0693284209798655
-1.0774274478694315
-1.1425336938780226
-1.0939724163258597
-0.5725974654411922
0.4887898057940958
1.644530912349059
2.0864135098501766
2.022873918276561
1.4092145989088034
0.6632600287116165
-0.023364359279310964
-0.7056981608466983
-0.9733447567279733
-1.0031445322654868
-1.0093478886584208
-1.0801650514282222
-1.1419529327901332
-0.9877266417960822
-0.19073390080868502
1.0350231874337616
1.9704330759490343
2.2347731730375617
1.7949887458775389
1.0120032018546048
0.2763927808194291
-0.45830329441032175
-0.7539055273528998
-0.8895892515186086
-0.90974251
-0.90974251
-0.9717225787664961
-0.846248237912795
-0.20485200582721552
1.0588777192181074
1.9503765169812437
2.349206436980867
2.099605064202796
1.5857675016746366
0.6811421737662107
0.08182668048223818
-0.5438099697366311
-0.7378252442155457
-0.8165652352890608
-0.8516567397244974
-0.9190809617373725
-0.9019925322108642
-0.26194709907990243
0.7550698701198997
2.0260115723684105
2.568594928758016
2.4658279482392387
1.8454502537559658
1.096726676526822
0.22040394976468028
-0.3758286808507638
-0.6970637214619477
-0.7730818549731664
-0.82481894310745
-0.9043480772266036
-0.9745540777147753
-0.546591954948847
0.4967453520839432
1.6377570148825764
2.295237319518758
2.3864687570050975
1.9084816468537238
1.228713794651124
0.4487299610525114
-0.37088725183119564
-0.6499209276931992
-0.8508509847631464
-0.8681211824164985
-0.925933802888021
-1.0051387268423664
-0.8098952252845727
0.06942467420018428
1.2750952475980144
2.076573360896888
2.3801777872191794
1.9033024311478302
1.4066703762974087
0.44261401035735887
-0.33153040657136446
-0.6546948787355137
-0.8767321740011826
-0.914627711385283
-0.9426711490952029
-1.0220715712122799
-0.8629688002010205
-0.2281189856351492
0.9370554809522633
1.9580697685553006
2.3468662863165566
2.094550616156972
1.5942877583102453
0.7735202541625044
-0.10289170716797061
-0.5008591757645339
-0.6821194614402173
-0.7273736112899373
-0.7637859349891543
-0.8362088910560821
-0.7407038139248606
-0.06385869993859639
1.1070528347768531
2.207591973271315
2.441685561848372
2.1861522840260412
1.45575242353065
0.7178018414057195
-0.012072656672895393
-0.5096433291507735
-0.7614974588442341
-0.850074552309426
-0.8791147049501976
-0.9507408713176771
-0.9352050148283292
-0.43360734020327124
0.6337423963306537
1.8843060787981358
2.3792319022060315
2.2026972458714087
1.5878696653952984
0.7087208473522255
-0.05439652485682739
-0.5470417350873547
-0.8184059117868333
-0.8900306107622225
-0.9497817446374066
-1.035726291303252
-0.9859601011334905
-0.43756394969245666
0.6548932309688
1.6266289214742387
2.3298705167876714
2.273669993842561
1.7166357116118636
0.9591301781508014
0.22786632624479441
-0.3305174268863146
-0.7024411212277487
-0.8403157530134399
-0.9135870782450141
-1.004503281345972
-1.0166337860861063
-0.8189513229580617
0.12742207667629635
1.1037292040099622
1.872259784750943
1.9939599724615713
1.5929061007429681
0.9059526976068764
0.0870326308339339
-0.5596776710647006
-0.9174966775619545
-1.052390764680859
-1.0909602486160468
-1.1238378825619246
-1.183388859577467
-1.0631142605388937
-0.4679009380167293
0.5479953138277652
1.5614966299883732
1.9095528371686803
1.613489395971978
0.9907280713299746
0.3479060233273722
-0.3046531894014922
-0.8009583145746204
-0.9716748068709109
-1.00671208471081
-1.0343265640948112
-1.1105349201320494
-1.088663742266835
-0.6103993870412615
0.3138952168046528
1.3540871324203896
2.023144780502643
1.9413910342580145
1.458106307644674
0.7276801070803929
0.04173149952267785
-0.5002706207780903
-0.824935646699883
-0.9050130255706522
-0.9319383579281143
-1.0049728750136284
-1.0356635838623622
-0.7415723851602086
0.14148777752289987
1.2144229035562581
1.9780461411763428
2.088378708895533
1.6525941661142587
0.9468490100778582
0.2111760940626483
-0.35193000471867253
-0.7607194624468245
-0.9526832693164617
-1.0021070847948037
-1.050687791175888
-1.1600511395773463
-1.1003485201602545
-0.5532997896199277
0.46716579867995717
1.4437172489442536
2.0016143138931293
1.9182858202927748
1.3546671680925075
0.5858470358672986
-0.1618319029606886
-0.6618002481262695
-0.9486743210612202
-1.0621638433838982
-1.113089369364799
-1.1915342999629726
-1.3164855491483411
-1.198164710845645
-0.6248981409233925
0.3743670782260575
1.3160941137170916
1.9056231832258619
1.8199911360968863
1.2532039709511527
0.5274292384931034
-0.26748429692900644
-0.7669192174646582
-1.0479519079644948
-1.1605735846334924
-1.2082202877942156
-1.2727655580778432
-1.395976763814203
-1.3155093127498236
-0.8473962190002204
0.08147432498455387
1.0489162821573195
1.7028618953991892
1.5850403958346804
0.986254109773995
0.13343348306338243
-0.6304294833666005
-1.0923615880931685
-1.3126510917577467
-1.3543377875035227
-1.337113032907338
-1.3488612822644135
-1.4369971286689942
-1.395562166643095
-0.7867039794520627
0.1946452072258083
1.2512652116196024
1.9678943519547591
1.7971381225282004
1.2095577833797746
0.46119346816054896
-0.46752098411717347
-0.8666977657577332
-1.0591481880631044
-1.0833045594241315
-1.0672254365369456
-1.1190543852757517
-1.2354308023507063
-1.1315883863206262
-0.4717555539655697
0.6885849950569174
1.6580147663553926
2.247168006430995
2.028697533299567
1.4170304829813445
0.5828011699979682
-0.18042325470146064
-0.6412090103378111
-0.9409986322659314
-1.0742919288976946
-1.0963745
-1.1174279954438535
-1.2625535403086752
-1.3134782827653961
-0.8286733362512232
0.23933413346602883
1.3537447955218584
2.194130420073416
2.1557080567705778
1.5899152422213112
0.7874519599195953
-0.10512711250399209
-0.7749607405282105
-1.2243621957238011
-1.386509076601037
-1.4189312965003054
-1.4229805
-1.5293708975831524
-1.63605713035453
-1.3682392906735
-0.2356154242742372
1.0613187292414994
2.0416223079254103
2.221169549802462
1.8101115762987696
0.946322846828979
0.02164320555454613
-0.6680929414837506
-1.0944032570793925
-1.2244205152572425
-1.2363485
-1.2199085775844625
-1.2881399211295796
-1.4251175813170038
-1.1943544872933627
-0.2897358546784411
0.9413477541598705
1.9638234132652481
2.1547400499778346
1.6968357046144211
0.8317768584308483
-0.07995614925626837
-0.8073669688199376
-1.1496142424063902
-1.2345977543722446
-1.1860951537356248
-1.1486323824069733
-1.161172195192527
-1.2575500556923602
-0.907595353468452
0.1236924890920773
1.306830189100464
2.381001589941254
2.5223714957882293
2.0077417552813976
1.1579618450037072
0.23155300254397496
-0.263711717790641
-0.8205574839778647
-0.979564480256823
-0.9668932425921222
-0.9565995462926775
-1.0247107343082649
-1.009301935378666
-0.47044110385566085
0.3370160538567028
1.824472350691848
2.605610783499078
2.624736747966237
2.1164097624467324
1.0905286974634718
0.29048597049801833
-0.33488327551765196
-0.8414822810157864
-0.9447257085773013
-0.955276328181316
-0.9834144896662639
-1.11932589604795
-1.1814274361123518
-0.5477242255047541
0.45735369647883783
1.7141193527082692
2.5135182590580722
2.586225492786267
2.1221889805182292
1.2269401332847292
0.21435381245578206
-0.5363089800893217
-0.9649027297777137
-1.0858627894828017
-1.0967372847053674
-1.1145487422984919
-1.2070400310748228
-1.350402662777363
-1.0413359554156019
-0.13474576309558578
1.0273457263971826
2.184381915598411
2.27428396976636
1.736829518383386
0.8672454005542798
0.02264957512863082
-0.6765983751280735
-1.0599412785840654
-1.1528057283913713
-1.1663615
-1.1663615
-1.2748057907755472
-1.388961114441178
-1.150675340962588
-0.24374929891239838
1.3956037306369977
2.0868903303991546
2.2518057375427016
1.792026157009749
1.0504050596220098
0.23380765680088125
-0.6057167811583967
-1.0125650026122461
-1.1250500732075623
-1.0916822049938446
-1.0575706182410334
-1.1171443889333206
-1.1901269779357826
-0.8688067055131775
0.19687082792847338
1.5100594416047306
2.3884324511144066
2.474739984616009
2.0378270010902018
1.2570588601561923
0.2882456369479096
-0.3721044374433693
-0.8001192750157391
-0.94706891
-0.9421009006879489
-0.9398258111140655
-1.047865123126196
-1.1057899466133645
-0.681909554777926
0.24675681951695683
1.521480719369285
2.4562099654778358
2.5244698780913604
2.0460830570182473
1.1393047550246767
0.2915691348614071
-0.30586304394884595
-0.7171052340372046
-0.8951243221259039
-0.9108702988812164
-0.9394408240040378
-1.0391218198733587
-1.0247428548037671
-0.4467006991403796
0.6461051077832111
1.7926263332050045
2.501133539317987
2.361752498685994
1.758608095537634
0.9097797023726212
0.1014725780156524
-0.48923735181162065
-0.8395414056096528
-0.945020111132258
-0.95640051
-0.9873111512204972
-1.0873706166330137
-1.0479759661204127
-0.4569509512471224
0.6575347902621285
1.7825130038216221
2.3720846343034796
2.181119923747806
1.4560194216885312
0.590238290205433
-0.14030781449118046
-0.6763176872003018
-0.8268462411029137
-0.8483759684333027
-0.8253620196785157
-0.9037210605613657
-0.9219897477287874
-0.6413981370801054
0.371592443187294
1.4637365716157908
2.3390638648723394
2.442970772465749
1.9764586165266644
1.2915248526515994
0.4616851727707875
-0.08325605047087051
-0.47426850611785104
-0.58313648
-0.5937287553761285
-0.6513302104198796
-0.7564497114495242
-0.6511942368703935
-0.06644018146579977
1.1110305026177438
2.115484574919456
2.617037920358596
2.4013138644452514
1.7963358319796674
1.0351444380065489
0.23457487011366557
-0.23126915866816866
-0.4912428510611094
-0.6186028942154665
-0.6659109837773384
-0.7667440938499108
-0.8745933319179391
-0.6562175144327199
0.07877442023185854
1.3659755713344017
2.2848179337594225
2.474404535965459
2.0337784943422323
1.3621779843702961
0.6105291148226654
-0.05261135174875857
-0.46469865058422394
-0.7409000260164808
-0.8400048466196016
-0.9165268829441067
-1.0540620768029916
-1.1007087251850682
-0.7409939674886611
0.3335257552803622
1.5696970207830376
2.319304978053748
2.3083588993267155
1.750309579967129
0.998703160512441
0.25709450331905936
-0.3238858017491381
-0.7064486486095862
-0.8753937091475577
-0.90974251
-0.9644012113443615
-1.1092463446007572
-1.2069150691897157
-0.9016169041297784
0.042472813024528655
1.2802925372249958
1.9549974201385496
1.9572054849139446
1.4013345459384683
0.6472467390498966
-0.06829939097296106
-0.6414699487102131
-0.9462366661404691
-1.026004069466862
-1.0107083865196018
-1.0502417464143667
-1.170526382031115
-1.2514630793497892
-0.8584047419386647
0.07433649484438298
1.2927842787242825
1.930764025572106
1.9897894650119043
1.5228386192148422
0.8500867579613212
0.1541149764037914
-0.4085609591383616
-0.7214448160208135
-0.8090878548677488
-0.8335976378738195
-0.9001143590827264
-1.041297228051934
-1.075778844955349
-0.6894450851430297
0.23893247378480653
1.3566679622013984
1.994262087561272
2.0453224361743763
1.5445863185204374
0.9216984551110114
0.29422881089440306
-0.3467889854014543
-0.7245843399623231
-0.8798828139790801
-0.9287583735933633
-0.9986676608647346
-1.1070171949711782
-1.2426290783396936
-1.0533394838365353
-0.2205940853569568
1.0196665266174507
1.8937919387958022
2.1161281362064326
1.7477755626707032
1.131797264019971
0.40223610595364323
-0.24846758923817003
-0.6513407721414872
-0.9186391726455743
-0.9983792256208038
-1.0457786403188574
-1.1476523815761848
-1.3037513001897576
-1.3799965789845048
-0.8692586263774333
-0.044258549521434265
0.9521751325944717
1.86443321389843
1.841295326834375
1.306002948052749
0.5800645281353426
-0.20002466567439714
-0.6745976691499401
-0.9831365543594582
-1.1167414800302895
-1.1568860413187185
-1.2186485357032792
-1.3375072427146786
-1.4614433738984056
-1.265880110905017
-0.6261458911809935
0.4546592442184324
1.422014139210648
1.7021254604563847
1.4108458378967017
0.7775511681567508
0.051317913237608814
-0.5800088121189534
-0.9999930131657011
-1.1315995275995177
-1.1060474080901628
-1.07498806354969
-1.091327741721562
-1.2130582521723057
-1.2068781652379843
-0.6816088456441649
0.41865027990399317
1.495664843924852
1.9273995725723665
1.7343016866897376
1.1533006218603674
0.3605021376611044
-0.25148174880523955
-0.669249277702723
-0.8998565425314795
-0.9486384186359167
-0.95640051
-0.9986444438752017
-1.1607110478329907
-1.0678804043193795
-0.4433878130101251
0.5964125995384463
1.6825473426962723
1.9573171062242245
1.6523964483947995
1.0348170029514288
0.40630378358040364
-0.30296698008379924
-0.7250360082629763
-0.9366968163060111
-0.9552752767314313
-0.9903400292105324
-1.0643685608753408
-1.2191351568663997
-1.0618014647027387
-0.22695071028414338
0.7459031046427189
1.5992906478909656
1.847256858631694
1.4299527381864288
0.7913464268764722
0.0905636591627329
-0.47504977076415567
-0.9165067170841961
-1.0885132658286067
-1.1414899902440327
-1.1519726382492077
-1.2460549159638727
-1.3779690121116515
-1.2204370921573613
-0.5184689289088563
0.628128831982852
1.2663622559340342
1.4728880265369484
1.073570836636306
0.35985213597041665
-0.19103369895065364
-0.7146025027879501
-1.1232533574597416
-1.1896905
-1.1896905
-1.1826536339903169
-1.2992069202745247
-1.4378844986535408
-1.1474496479072576
-0.24604201273675694
0.7247011009333509
1.3634242302697777
1.3513107591797788
0.9043565998098517
0.2828115209681868
-0.3034999861127648
-0.7886717359918753
-1.0427099869784575
-1.058315411841893
-1.0498823158593855
-1.0554261065659196
-1.154311433908015
-1.1626330584234494
-0.5507306997418333
0.4032732993678302
1.2466772895056448
1.5513860499145538
1.2369651708215748
0.6888297585639354
0.04207983987592889
-0.5187075440864426
-1.0015852639287866
-1.0598391285161364
-1.1009861705115591
-1.1183056550579649
-1.1730741996308645
-1.22387692005155
-0.8867908995387463
-0.24238928660799297
1.255149626879801
1.2685582549142613
1.2819668829487274
0.996097463318758
0.24479495887668307
-0.14644393698779
-0.8058808954172032
-1.069431382256023
-1.1686883208634131
-1.1430325
-1.1468201867075853
-1.160040818135609
-0.9789466257396473
-0.42038794106286803
0.28301762682044196
1.1311251035274814
1.2233145175293
0.8928718085013523
0.5624290994735484
0.04212827061260338
-1.0014437158049907
-1.0533777970445666
-1.1053118782841536
-1.1430325
-1.1430325
-1.2026365218853539
-1.2899955976442172
-1.0842001085214847
-0.552092246042259
0.41822807851479793
1.2236682983258362
1.1703470355586962
0.7792786687750222
0.01524683740603669
-0.504794121321612
-1.1027807727157455
-1.2946289024709277
-1.2833709999043186
-1.2038556255213213
-1.2059497720306864
-1.2697682432650779
-1.256984090921807
-0.8318135148675664
0.032948201801293986
0.8862411185680868
1.3251592454508212
1.2142524120740714
0.6026316557595601
-0.06777234532698019
-0.6011902018419688
-0.8959352987698238
-0.9480830392076706
-0.9114295316900691
-0.8705560376962415
-0.9105141903642544
-0.917229537860205
-0.6174943755682024
0.1520382044877723
1.0330631187611163
1.5413003163676005
1.4194332664810856
0.938716680333614
0.25177482498415105
-0.2891836644632997
-0.7342952926255003
-0.8963243674722692
-0.90974251
-0.90974251
-0.9380244958887579
-0.9401684901196931
-0.6879571443725301
-0.06414624952106163
0.8554510546604573
1.4239772988552883
1.4505702135073506
1.0997792165323148
0.5354286121331698
-0.06578947150976266
-0.49819196067602567
-0.754349001336649
-0.8542371183778791
-0.8630844999999999
-0.8675568263874327
-0.9597027648817406
-0.8958260774093456
-0.45628002695930653
0.6524895386970078
1.3717610114538314
1.485459146593785
1.0888915008169808
0.6679183801349444
-0.09642686866605729
-0.5489118589677547
-0.859314838192134
-0.95640051
-0.9465218355670667
-0.9383539897160245
-0.9832748367670027
-0.963041046538517
-0.5832427629803631
0.1645681557770975
0.9497092704133492
1.2931993438585496
1.0321979656099751
0.46397794576072887
-0.13253961822225824
-0.643999809469068
-0.9196706044420395
-0.9956536349391467
-0.9704588563125037
-0.9352809314842115
-0.9834711496560763
-0.9875929422749434
-0.7164333387299916
-0.011782250270975736
0.9352235659250061
1.3707567950137163
1.2099589501885868
0.6853502341095296
0.07968917311103602
-0.4178701832022176
-0.7484500255271876
-0.8421591650880816
-0.8212243978108253
-0.7848226347106084
-0.8175772986881613
-0.8510367273071237
-0.5663195494247679
0.11582025379875369
0.9828731291153676
1.4191460341540132
1.3769266487102512
0.9106386905774955
0.2561658645929339
-0.3326019400728019
-0.7008228633928494
-0.8749390974985389
-0.8977525470513401
-0.8864135000000001
-0.9165208285911886
-0.9691377396301267
-0.8328506680667433
-0.3124993698906166
0.5245727151180702
1.1727464003088195
1.235226840751356
0.946987726348419
0.48491507813793194
-0.2140068042385811
-0.7634317273976093
-1.0528093195567085
-1.1282404259834486
-1.1079104732115097
-1.1143065198160622
-1.1779084320098134
-1.151966309235536
-0.753113401609174
0.11775212929938972
0.897005115598057
1.1675327842224323
0.9745260921213259
0.50103324623267
-0.14984480775769696
-0.7858071100600015
-1.1180058836842899
-1.1896905
-1.1479700882590158
-1.1031047196731096
-1.1192088584385855
-1.1048643972262486
-0.8198691748831756
-0.08209961168619084
0.7377142843491586
1.1477048436295736
0.9599690349800536
0.4923814329111866
-0.1694198472194221
-0.7369871609758964
-1.0926462661581313
-1.1709799375885885
-1.0970553817745077
-1.0249150956132702
-1.0123901
-1.0250695344756298
-0.8045627929620256
-0.11225471203823645
0.6817705468207191
1.3141843038480439
1.350836289422195
0.8688535370038443
0.2529935831260555
-0.35214994450274273
-0.7611257937695997
-0.8869949452043461
-0.865492277097463
-0.7996060305071024
-0.7999417661297705
-0.7874511952719272
-0.5805268907295941
0.0568715901275999
0.932264354175159
1.5291647069562322
1.6053897199558056
1.2343508904191571
0.5596109768813858
-0.05268306608143186
-0.47463974249380186
-0.7005430687704601
-0.7697685000000001
-0.7702454816309857
-0.7766001230884246
-0.7883168598245389
-0.5869466060890882
-0.0682911365918753
0.7296458519746625
1.4973377604780767
1.60104779633289
1.1982729389702143
0.7028200300651013
0.0495851673431521
-0.48963642177882366
-0.835147804112872
-0.9747801484211495
-0.9381053299217583
-0.9127248011867184
-0.9163773909389237
-0.7846717889378739
-0.21816853341816878
0.5350469197453865
1.6072200292654941
1.5691682547102757
1.1684346315925958
0.5811323875001353
-0.09012837222957983
-0.5665434136879909
-0.8203321753664996
-0.9042888567706941
-0.8700733999486732
-0.8630844999999999
-0.9245324223533933
-0.7978029073848631
-0.10925396954225286
0.729908813867031
1.361194539763751
1.409814485866348
0.9832769654140469
0.3433485716856509
-0.16804749449470052
