0.30733965
0.30191184816205474
0.41135748550375506
0.4789866736351297
0.4656014978120502
0.3429972266514316
0.21848431429025017
0.12069957235090037
0.07451488391874019
0.026600852683082238
-0.0352047794303955
-0.08834211309847442
-0.1629542474432289
-0.23525777385067623
-0.26261953159904516
-0.2973189329277418
-0.36242929523070366
-0.42157418548300646
-0.46468877816647247
-0.5094009929398454
-0.5674706066405252
-0.6444914949197034
-0.7050974603970984
-0.7016133813192185
-0.6103942624237233
-0.4349315405355827
-0.1644571761936737
0.16097678046544456
0.5541346590436893
0.7419684165588607
0.800470395210221
0.9578244877444462
0.8698230149009647
0.585368592968458
0.4260119900680809
0.40678394
0.3838649201689584
0.3018476031974944
0.21058544980431187
0.14463816789331344
0.038135846768122025
-0.09938740654393724
-0.296154805701744
-0.5419556513032556
-0.7082822938323128
-0.8695163309719618
-0.9761556054955092
-1.050801347383833
-1.1486599385381657
-1.256062890225603
-1.2997575697427073
-1.2313768211002372
-1.1638475662196686
-1.1661569068076136
-1.1843248
-1.1284885397639042
-0.7167519316307223
0.1135100143953297
0.9057129287630462
1.4488896621975411
1.272426627627543
0.9203322914698326
0.6177627656241171
0.3266458979861526
0.10618212960589135
-0.023369005136599993
-0.11932179377918484
-0.1879202084350644
-0.11783908253364
-0.06037096970630777
-0.05846355561949423
-0.11274156990534734
-0.23900735030569284
-0.3609880552856652
-0.44985828770715697
-0.5231747427657968
-0.6341717117755457
-0.8340248788822379
-0.91913999
-0.9222726840326674
-0.9593812037166255
-1.0396693235355523
-1.1165812629709513
-1.237239576165653
-1.165262848004181
-0.7174692373096967
0.08158664756144575
0.8143398547480611
1.227426750445371
1.0600876890452224
0.7451559479997755
0.37331829428333624
0.1742808134941672
0.004861240485311086
-0.15947048389681862
-0.2965718726048283
-0.4028512999603565
-0.5006991936190127
-0.5459127791629846
-0.5764889758804802
-0.603247771378059
-0.6592429621065685
-0.7667347945291868
-0.8246494357189753
-0.8469324562074654
-0.8893700515498726
-0.9395552188806209
-0.976400871648847
-0.9852494846549106
-0.9677429783970976
-1.004474091951089
-1.039344827018878
-1.0017176404533086
-0.8161168029838501
-0.2371332099128879
0.4941780866943825
0.9962219540648987
1.1298633567139464
0.872902641479562
0.4386785190055188
0.13676812985816117
-0.061691675314292815
-0.18673355735945335
-0.26879769042880625
-0.323256914431585
-0.393886828338291
-0.5468507641774201
-0.6292272261332692
-0.7388480817106751
-0.85284379
-0.8492772528970366
-0.7717200581936008
-0.7746650897501853
-0.8954058990981866
-1.072829375041811
-1.1301665398683036
-1.1528589767648079
-1.1307401325941675
-1.107629142809425
-1.0471566515416064
-0.934106745983674
-0.6078648151196436
-0.06469337676498926
0.5374733151674751
0.8955009447734812
0.8384149486338902
0.5979108741782717
0.3239148612469968
0.0819831843448356
-0.09398091759965227
-0.21705617580956635
-0.3108816465000631
-0.39418733905281
-0.4872563839964098
-0.5556694173285416
-0.6187242782703029
-0.6750215049566264
-0.7209881177764812
-0.7812649077761704
-0.8228961434521233
-0.9292766557128186
-0.9759432748312282
-0.9596654174066791
-0.9260162854863876
-0.9551793489408159
-1.0456607602222807
-1.098578496828907
-1.0623803919707655
-0.8008652540821282
-0.19342941949102382
0.6298052399130516
1.1261945342873174
1.1378242460239043
0.8856489609018698
0.5641733916970808
0.3995519087280022
0.3092253800396749
0.21006945384634518
0.09569969445751444
-0.015352136745778186
-0.04975734643256479
-0.057289435
-0.12548757298415197
-0.2643785357838664
-0.3446152026275762
-0.43407989004857345
-0.49173304034789145
-0.5182491556561313
-0.52136281
-0.5331735731451759
-0.5817256566116931
-0.6742034881937053
-0.6561289036522605
-0.24010266862963486
0.4923491001364211
1.1789819879353762
1.5033691836637695
1.3620563351596213
1.0786531738938026
0.8142837251308794
0.6730238973174614
0.5926795145722998
0.5504982062065782
0.45487373208062065
0.2681610267669483
0.13980278445417244
-0.009813386886069836
-0.07342012368266831
-0.20795175649302952
-0.3605042180744762
-0.4552252325850181
-0.5193088504668111
-0.4788747569473597
-0.37266253299407237
-0.359303909178373
-0.4829955435838167
-0.3474210943848214
0.2480584898258586
1.0419465124075555
1.4452144119196564
1.507031043962922
1.3290426289860782
1.1880289496206127
1.027063681433982
0.8484671465494513
0.5784830031971837
0.3356427614634504
0.21491581501743534
0.16018160649328098
0.10584098883414975
0.01675152334680126
-0.07281771428461913
-0.13256127790898764
-0.17777486345296112
-0.3052638324291179
-0.5258969725896878
-0.5711105581336603
-0.6284017602820823
-0.5859730953331158
-0.5393685186120704
-0.26938072959950454
0.25964024921952067
0.9994300713908495
1.6375193554255265
1.9034489250094881
1.7929073879250965
1.7006347894288236
1.6133626486527108
1.4427019917722796
1.2236702783685207
1.0140346852426123
0.8264144893496093
0.7033232333454047
0.5908711199974003
0.49578969267795725
0.39636090142732894
0.31045315372031174
0.19554824283413516
0.09198150357106138
-0.02326962817735871
-0.1487657511766993
-0.33068472013510475
-0.5095695770588166
-0.6449458386602545
-0.6321801771956661
-0.5675739618465888
-0.547791244877113
-0.6083487013141378
-0.49907384968387736
0.05776235739859742
0.8509250376920225
1.6124461206182419
1.90687809690354
1.8765864849409999
1.7679292712596364
1.6403204704450167
1.3990684691820714
1.067514718893492
0.7860907602886887
0.6412977184039295
0.5744266754415719
0.5349068659408646
0.4929763746750086
0.41583634155735
0.32737324699789894
0.2770309670714517
0.2514286797715562
0.2296908180212534
0.16813920498732135
0.08011656886848548
-0.043597465173580895
-0.18667517551676688
-0.3128392408161815
-0.4422968860399471
-0.49487483912893926
-0.4320429623348041
-0.18926608756094096
0.41155748117479496
1.2130594624863273
1.7723983184978986
1.887023643138278
1.7942946854397164
1.6645883722935395
1.52206565165095
1.3284559972613263
1.1413666269777443
0.9525752728450122
0.7001826698062252
0.5337120000447305
0.34016974722114185
0.24682550170453915
0.25450462988762523
0.27419155
0.27419155
0.19799457431941803
0.07163021769697542
-0.034126005641923876
-0.06401401837129576
-0.10281735401130135
-0.19995089348383357
-0.3988815873491351
-0.5604937516259401
-0.6409269640605129
-0.6819325512452876
-0.6795385491185056
-0.38398488203069747
0.3089140394968366
0.9346025744438471
1.3771095309760764
1.4675231000000002
1.5022603136507344
1.5697376153468272
1.5059639000931173
1.3448577912342143
1.1312645311718712
0.9416799136080134
0.7649280014450986
0.593050952548946
0.4368862805979617
0.35546926121597816
0.301118162153011
0.1901726277415087
0.04578758711906092
-0.08702262170759976
-0.16102787943817717
-0.27864834084536355
-0.3845684193583443
-0.5598873669740729
-0.6369697351970353
-0.7388872065736427
-0.85284379
-0.85284379
-0.7626182778470567
-0.6586454781458821
-0.5564401142538227
-0.1706250150287209
0.42693468612702146
1.0382151113173177
1.3759946040313469
1.2855131190650948
1.121472990202985
0.9587678961827654
0.6807211912570876
0.46227248537361
0.16954159228025678
0.08505012055738691
0.075302958
0.075302958
0.075302958
0.07046667116424249
-0.03876851976842266
-0.11381958427974495
-0.23870982824748307
-0.3790354996516799
-0.5000277815172532
-0.6394919189734447
-0.7810333618068243
-0.902280336211871
-0.9680003766530498
-1.038333154983818
-1.1180286
-1.1115353975378597
-1.0448056337968232
-0.8139320361861095
-0.22765940880081342
0.38429336936317987
0.8279168689767001
0.996885281946178
1.4224773794262484
1.1277511741191628
0.9161666676059111
0.8107151517385162
0.7314700568100734
0.6744194346129138
0.5474817844698632
0.3995325528113427
0.2718975649162923
0.08930305442343979
-0.18680790243190806
-0.4091840772606134
-0.5299473067415033
-0.5865970792199803
-0.7399008349999583
-0.9506894153861907
-1.103162157089155
-1.159758133394956
-1.2695920594366221
-1.3913820697039334
-1.4633580268034314
-1.4071294243692811
-1.3534464539100857
-0.7277451371103199
0.20296590013414423
1.3105391538701374
2.049205124477484
1.976852472433392
1.526399624919951
1.1068488752143923
0.6207223581244083
0.43601015043666025
0.1967184015697857
-0.025001074208197735
-0.2741390820425002
-0.40944635509454386
-0.5578094351587543
-0.7544878567037517
-0.98777104065311
-1.284472342394665
-1.527149290138777
-1.7364787138217208
-1.9136653675648176
-2.0005102624695383
-2.072901620303459
-2.1573449668312374
-2.17105738297629
-2.0917050376323507
-2.01351149621311
-1.8704645445474732
-1.5473740932945148
-0.7350160414691018
0.32299590068660095
1.5649435286878002
2.0444355178353377
1.7942937236863408
1.4209083891047358
1.063287810366804
0.7718113246247307
0.5130440433122314
0.23823414857491654
-0.07308991224017447
-0.1819308495507844
-0.24237889192456197
-0.4755185606655452
-0.6274970039408068
-0.9985832944966745
-1.0686780066261203
-1.007276960318566
-0.9510287460931311
-0.9592457563748386
-1.0403082378562192
-1.1852062787215873
-1.3590503634081648
-1.5601983664851806
-1.720918748775053
-1.8470294239163736
-1.783342201402659
-1.2490493565455933
-0.24772086825661443
0.915498881532524
1.6689518292768628
1.5784704261825928
1.3327537981735664
0.8873081876814857
0.5435655174249219
0.03951287214738472
-0.29907292218405246
-0.4718175900025438
-0.5192014230197595
-0.49979986554979916
-0.5379813131291086
-0.6533859416020307
-0.8068584124147173
-0.9190539971176606
-0.9791846158983286
-0.9464136799673326
-0.8672077549933292
-0.783318697856245
-0.7770784819331131
-0.9228581121608627
-1.1058579687857928
-1.2199890556041648
-1.1818128152495084
-0.6597306806804499
0.5611077301395657
2.0389155719314047
2.6594943326469274
2.7652004166907322
2.408265116069876
2.1110307889034745
1.7772209572212183
1.4147007513698056
1.0230401001749385
0.6925105390379984
0.5285758622873062
0.30057872225777055
0.14349175141841355
-0.03946093302699205
-0.29458015558699685
-0.6037141903916928
-0.91852668061812
-1.2332788107194628
-1.3868983215051562
-1.51030114431644
-1.6152166906664989
-1.508748491963095
-1.3832133999999998
-1.3849953814891969
-1.3426436516308076
-0.5179099026552836
0.8648418971370726
2.2948179153748254
3.0131207520729597
3.0836651628060223
2.9334778345225336
2.8069451305668767
2.422905746545401
1.9838369424565525
1.6034207117439008
1.2772121198850315
1.0237338527397382
0.7451248372873438
0.42105195011683216
0.012143657984981019
-0.15878263915137994
-0.38324982604319313
-0.6373424526816495
-0.8781356736620184
-0.9188441874466079
-0.91913999
-0.91913999
-1.0282228795877866
-1.1121997546164741
-1.161979452736947
-1.1306956326959736
-1.1039144649922508
-1.0250928329672269
-0.23357333853783763
0.8522152030070935
2.300339857029549
2.8923855350523406
3.0102124416985396
2.8976582142602214
2.805631621201617
2.603465747146904
2.303311901091932
1.892849911469741
1.5800309596861495
1.2575795198490367
0.8650628994392717
0.17362447924357
0.11247510675332542
0.051325734263094086
-0.009823638227150516
-0.057289435
-0.057765671915798004
-0.2407664369663412
-0.4706577785027358
-0.6334918254538947
-0.8707069777709073
-1.0584659936780108
-1.0908126485604728
-1.1454907214067258
-1.2156857997145671
-1.2751492965597135
-1.2863037025618473
-1.186450789093122
-0.9730768577961315
-0.49799926796261196
0.43646240646809686
1.6622628327060265
2.6445264809945157
2.9921930050626333
3.016728127573344
3.0325067581789185
2.9719237860131917
2.8074387565628993
2.623852757103103
2.4259674534971207
2.265033905936058
1.6053368840955127
0.8887558655641837
0.5871728054131258
0.44508510269078366
0.40678394
0.40016964096650115
0.36134057626883803
0.24833797693040313
0.10837609130841264
-0.00025516865940838906
-0.04954097311134089
-0.10242534644426282
-0.194549435483599
-0.32348783302708856
-0.4081140255775527
-0.47574203128047354
-0.5957271412870958
-0.6465261139543002
-0.5955759194840177
-0.2715660067759178
0.2656271921094866
0.9172865982329366
1.275280540308577
1.2559375112595275
1.0947997161778824
0.982080753583909
0.8920128762044652
0.7063472873702481
0.4961344408285373
0.33378289887606594
0.24788924054135547
0.24015805646997762
0.16880497125792815
-0.0020792351808673892
-0.08994541164619113
-0.11926162848831631
-0.15801510325276155
-0.31270938294871564
-0.4795297851694761
-0.613638983724488
-0.7143563844623602
-0.8131694152966417
-0.8497118687251661
-0.85284379
-0.8875016030044538
-0.9542238053386662
-0.9849163063632054
-0.98543619
-0.98543619
-0.9448552393631611
-0.58631879216088
0.0407852220902849
0.6115650478666057
0.8592417493765248
1.2411041041744804
1.182565329985946
0.8014306449748445
0.3968701701011541
0.06089886805752932
-0.1492776706328308
-0.18879413667011788
-0.08502397486030278
-0.09917115392953987
-0.28448517165657156
-0.6540403449661152
-0.8265912771393558
-0.8746642750785927
-0.8167496338888042
-0.7815393350796559
-0.6910578828622039
-0.7439281256518686
-0.930324076155395
-1.076941607389543
-1.1390291281619893
-1.1706732254854972
-1.31531681147305
-1.4193677600981944
-1.444106542601073
-1.472341189831121
-1.2827557146057809
-0.6805816010425034
0.41504217564629864
1.591083913580821
1.9853460292732932
1.8848267936794123
1.524853733646794
1.0347246388530331
0.63721755477459
0.4218420506758907
0.5032590782450697
0.6898977312033423
0.8646776312611211
0.756121594502204
0.5712861334570282
0.3577421554821878
0.11836102670332425
-0.04499382727603196
-0.20398382924566977
-0.4462870959165834
-0.6941716393813545
-0.8960161115710865
-1.0406840032643199
-1.185493867630663
-1.4231434450767457
-1.6741526010986982
-2.0092967421377663
-2.1602460364079987
-2.3859836388439986
-2.3452687679628603
-1.5717005732217204
-0.10239910232057314
1.0012357515635362
2.1536318754281143
2.2559811519715893
1.906644073508584
1.5924614646795068
1.1998181770808407
0.7031265470102012
0.29045433162970813
-0.005920825531964186
-0.2462730244251189
-0.48181230100341654
-0.7548801817750664
-1.0324646498433137
-1.2555215853401098
-1.3182324375094197
-1.304299310404483
-1.3709602274645099
-1.5086857819950397
-1.623449081894757
-1.6210553586264664
-1.6573081779349794
-1.787736755454992
-1.9254071398753156
-2.036182994187013
-2.125799492835862
-2.2013251924788224
-2.311865976822097
-2.3127386604224296
-1.6327690138222979
-0.36215640420108286
1.0834915800241143
1.9296631150798347
1.92408805579462
1.5628698362628455
1.3542472759277264
1.261324171976294
1.0286817492858604
0.6321641482237508
0.3071760840812458
0.20259636401195524
0.15933436705330645
0.007788473889497577
-0.22743872529238235
-0.4726253889457216
-0.6235995083727561
-0.7525683625243275
-0.9369599353445099
-1.1287237129257257
-1.2168926701596288
-1.3371445958649861
-1.4846187852561847
-1.5158058
-1.4868241345018474
-1.4285686167985383
-0.9495859558654385
0.2790356268790596
1.6001804890810325
2.6215188376471366
2.735794582376664
2.5351390166934546
2.4658508341329974
2.440692594651372
2.201667875855707
1.9534535118956264
1.7234340064830316
1.4614982852678309
1.0929151779311381
0.8990040533396066
0.8016135575420178
0.6660468254608571
0.4727580835349101
0.28902092203549745
0.03745271306887116
-0.05556823293785276
-0.16934042058140575
-0.31702123983168295
-0.46790190725423086
-0.5764579358259372
-0.1746023314185644
0.7775859586116788
2.0231902753635094
3.036119500467162
3.295712206997848
3.2575204
3.230602527766637
3.149788952046724
2.770262993140294
2.4714409355817346
1.9467353854517904
1.5975166621918448
1.3124293787483707
1.0623511807764168
0.8515448109698981
0.7891250898335276
0.7228081570181473
0.6009505862186942
0.4642450169024244
0.294392634699438
0.13028202913168305
-0.066825463610862
-0.19639111956055816
-0.30494714813226437
-0.49277748059391346
-0.8358866589039948
-0.899174820802208
-0.2430529867981278
1.246152031401707
2.8484390836118747
3.913000530657224
4.268534392859207
4.609523994456702
4.792919830643916
4.730374264107495
4.100001653737884
2.3267298471678197
1.6085543303590342
1.4584459135163845
1.3095373871732936
1.1959412509614815
1.0205857108369538
0.8280268169744464
0.6070720793367215
0.4533024570338574
0.311803410928732
0.19452882163721807
0.06742139815144862
-0.07206253685951362
-0.19365864875006053
-0.2479366589423131
-0.34056320739790386
-0.4627451310139811
-0.5828272973510298
-0.6888345271664512
-0.7202514
-0.6847121792776555
-0.622877889655332
-0.5206629629969561
-0.30449629147759993
-0.10406528033985118
0.5457524461054175
1.1563757042170413
1.681026973217403
1.878079156702223
1.9010296957348516
1.857424439733749
1.8043450705363233
1.592061624555692
1.3635305658763595
1.148978562107395
0.9885875930084691
0.8888645668219965
0.7732522995180754
0.6361140444818709
0.5537030227473548
0.5575978263405795
0.5921932438390493
0.60567253
0.5530817180446527
0.46658950963546014
0.4011366051190578
0.3736622553719349
0.39166922598114295
0.39853832333384503
0.3706523148725962
0.33444888103458875
0.22819285005771017
0.11199674149342564
0.01094074895377762
-0.025320125778716715
-0.048370183669565955
0.03714618770338046
0.4971287223603238
1.170017424066893
1.8351492449423359
2.056978160933929
2.074975869120306
2.0641889
1.999572603267559
1.8068673000255155
1.5616498145361333
1.3378590670841808
1.1486664900618664
0.9967565126283016
0.7191982232398056
0.560312411186004
0.4074681409238212
0.3159163658853611
0.2326873450131738
0.13571025002605788
0.06200258820917115
-0.029598023872146786
-0.12137726951413429
-0.17716774487815104
-0.2194562898795528
-0.331551959313353
-0.46047187739374534
-0.5658891144567088
-0.6200552732520437
-0.6477891810521892
-0.728636850086475
-0.8327423526411276
-0.8839066738063419
-0.937306251482161
-0.9810851133882165
-0.7585358071797333
-0.24730547431305072
0.34923819685751123
0.7707868400255644
0.9235344615417751
0.93715351
0.8904586220660489
0.7611486808477296
0.5664861654502173
0.3119827337301161
0.04320528991851035
-0.08041030539980262
-0.24006309824924355
-0.4155035318894921
-0.6355665031731049
-0.7350580989093203
-0.8020016523252371
-0.8494836602508116
-0.8319849082431345
-0.8506999756834992
-0.9193759490073791
-0.9399608831886038
-0.9250340361554923
-0.9201948975297565
-0.952761708557428
-1.0517324
-1.0537100924812834
-1.0908000530586228
-1.1128056859697502
-1.1160614825093804
-1.089568640205121
-1.0185843
-1.0185843
-0.9382575630031648
-0.6053177221074733
-0.034585548438656855
0.599963737937506
0.8894826709441008
0.8985506595651007
0.87085732
0.8621460723251264
0.7637190712004918
0.5985924017201028
0.5157868745104066
0.36284754733122915
0.29049495259753033
0.15572181069529425
0.058836875175984515
-0.02223414000336031
-0.1042386942192422
-0.24236696137550062
-0.366898527450203
-0.5058430187920839
-0.5898330172160101
-0.656617268854345
-0.7358736344955631
-0.8082262292292541
-0.85284379
-0.85284379
-0.85284379
-0.85284379
-0.8532946939901471
-0.8818125364014376
-0.9225627916698053
-0.9674157177385752
-1.0209451740237934
-1.00138819621965
-0.7806166744644772
0.019981768219388046
0.6120041646363299
1.027040980544697
1.099472120686905
1.0034497
1.0034497
0.9648278680191613
0.8109042857157143
0.4770762162064591
0.3023023068855458
0.1412528171107567
0.03274253028264681
-0.11911732175865256
-0.24593344121188246
-0.4359064973526796
-0.5306240925359716
-0.6410799412763606
-0.7447071647585337
-0.8346355156620603
-0.9233611885206653
-1.016967712115882
-1.0517324
-1.0517324
-1.1346991089527352
-1.1936551209588946
-1.3149382744051878
-1.3753531169821362
-1.4073889872469463
-1.4427502400061982
-1.4778238557466061
-1.5337000748769518
-1.492992232788236
-1.0810567779183333
-0.4143391384974628
0.253478546153739
0.6703199119117655
0.79130188
0.7620923815103091
0.7064574186686106
0.6380432621130652
0.46247373800804603
0.23454982339271857
0.04288713695077977
-0.05622520010097044
-0.11321907187829108
-0.17766079133466933
-0.24401946138414493
-0.31096752691656504
-0.3776533699612281
-0.47307871241584587
-0.554312707449565
-0.5820218465336265
-0.58765901
-0.6055778385298638
-0.6397299032927649
-0.6659601201580204
-0.6919627724019884
-0.7059850557738466
-0.7453781905911337
-0.7824460749409556
-0.7865476
-0.7096005829347775
-0.36630108439011816
0.2767170806858546
0.9354561192976301
1.3552553810941597
1.5233243000162022
1.4640665315125612
1.409214722919335
1.3434515317765952
1.2333773617922097
1.0249609704983567
0.729615335739209
0.4397455939773204
0.32119051179220504
0.22816198340229527
0.16171926583062513
0.03817113272852006
-0.06011014336571047
-0.14415051564015255
-0.20187918856550374
-0.3380529036191512
-0.5017893845283513
-0.5855330863844206
-0.6572368852986248
-0.7278895654501348
-0.788054486575354
-0.8310140950910488
-0.8698335956984711
-0.956678425105586
-1.050556070779171
-1.1004139298253806
-1.0000621459262555
-0.6736186494045844
-0.03473608901417917
0.7364796841931702
1.20787030234793
1.2530838633303103
1.2116223766712308
1.2270007872156943
1.2230365072209313
1.0327810880349704
0.7875563319165604
0.6755060668591741
0.5144062447871104
0.35280778755957626
0.20105624706084446
0.031585930980321454
-0.12649059308811716
-0.260195868676397
-0.3144738870558437
-0.4505553202490533
-0.6051145579362464
-0.7859886892324661
-0.8990497895635432
-0.9983304046383176
-1.1018473763038692
-1.1744835765120463
-1.30612777880905
-1.3948814266088119
-1.4552080095869826
-1.4827053625889297
-1.4287115412523244
-1.332185962420697
-1.279951063027824
-1.266753224208988
-1.1599259232053807
-0.5718779382348951
0.1265604595213481
0.9850428190527399
1.2202294361759751
1.2779590207352032
1.3396445579722718
1.4373461984237552
1.3653523229361197
1.1276911183659226
0.8330237253460436
0.6709736701862249
0.60567253
0.6138079416446324
0.610550173350884
0.5400106052596294
0.4380981699702623
0.34598578738569297
0.28053288969860224
0.19200410908206209
0.04665028990958907
-0.06978261245159964
-0.14520610094068073
-0.27691054849232155
-0.4248244747499277
-0.6096379932056497
-0.7353227093470591
-0.8403280830139546
-0.9034137063227887
-0.8922706550172106
-0.8931453706469109
-0.953230510209403
-0.7935776304881492
-0.3212190623572565
0.3861746146963765
0.9179592883319954
1.147670813916959
1.2241245392521136
1.2686345
1.2686345
1.205017484938558
1.025288021574339
0.7276506713851194
0.46807995908300615
0.3744328805229233
0.28690184850380646
0.16298675602076995
0.030578377953981467
-0.06567354160164499
-0.1354352006357759
-0.23741322686422273
-0.3630027948418859
-0.48855039344772766
-0.554043447677129
-0.6145462755256976
-0.696914206783112
-0.8195044352100146
-0.8723014200871514
-0.916008762146005
-0.980007564938897
-1.0524143998661237
-1.1247748264200834
-1.1741692740616894
-1.25821517595654
-1.346542259929539
-1.2040879323129279
-0.6897445074511008
-0.02337858824481759
0.5362212625919613
0.8148592686435541
0.847887881118997
0.8133302570422957
0.74901448667066
0.6515798561262758
0.46353781071676614
0.22849577898915543
0.08641558364548788
-0.02577124863128536
-0.06372111365520529
-0.14121374601897202
-0.2097767706632772
-0.2765612853096492
-0.33721024661652615
-0.5126983441883006
-0.6013923065893396
-0.6982789050016636
-0.7463872362755405
-0.7831490706668915
-0.8021229511809994
-0.7940527811321965
-0.8483307913244441
-0.8840606371416605
-0.91913999
-0.8393761893951904
-0.7320951786339385
-0.7202514
-0.7757783758421509
-0.5899231727829071
0.13230837170822252
0.8552151695636658
1.4052547804760531
1.7209579621775013
1.7559799383878463
1.734268796533659
1.6403690725596003
1.4177121982703713
1.1503704760058069
0.8852467295018273
0.606726408765274
0.48889482460545075
0.40188333715489394
0.24680863660898172
0.12197904899849954
-0.01035754035843023
-0.08256560191751144
-0.2037626556355655
-0.3186600210494226
-0.32247422
-0.32247422
-0.3457040549430187
-0.4100565205391106
-0.5305907665477065
-0.7024892381471279
-0.9107780320282752
-1.0392041103828848
-1.128980870034028
-1.1158945322626197
-1.0887555230729011
-1.0540094852082529
-1.058361893512065
-0.7372876454497809
-0.03252524558658562
0.7009379040050924
1.2458655478498484
1.328410737837428
1.2807382330835355
1.2703875724321247
1.2160788516237866
1.048273160815404
0.740800578432674
0.5156105013181945
0.31350625284170813
0.18687564791571956
0.027455183613233104
-0.06296645993717057
-0.14121841332816534
-0.21773497900300956
-0.32554702243075756
-0.40533022012486464
-0.5045931529234021
-0.5325246252699332
-0.5716952171768938
-0.6166967839998048
-0.6992375236615054
-0.7772775043090067
-0.7865476
-0.8030832397517073
-0.8440899539708292
-0.8690864967076766
-0.9103138595403787
-0.9511233715436457
-1.0294637457652944
-0.8916914234925413
-0.3511762463463842
0.40825149822326773
1.1811548911832674
1.5906836368657877
1.7420467515726714
1.7909139559153466
1.7990041
1.7638330544501437
1.6154930380859176
1.41918591515724
1.23373601902756
1.138532843763151
1.0243471115457732
0.855023985126519
0.7490526159095039
0.5143898633968796
0.32584115461109153
0.17204161345404761
0.14159915
0.14159915
0.1237808172560621
0.06381516987403292
0.014477637685185136
-0.09451234410493209
-0.18924016397322066
-0.3039775067569636
-0.36542498057184153
-0.4083575208024914
-0.46638349034974375
-0.6022541817633681
-0.6879738225509465
-0.5544879052065221
-0.1509193117422249
0.493815314339144
1.1189137413135044
1.3969609093268607
1.4708100285892802
1.5111342577328513
1.5263304198102148
1.4178351271442635
1.155720405213965
0.8617645856169649
0.6440256578419011
0.4791388349415305
0.3514422780236239
0.21431044454329257
0.11488986640526166
0.021339396174371764
-0.08578391630857568
-0.2024877385772362
-0.32931915772001014
-0.42901289639875173
-0.5171912607437481
-0.6498206282793814
-0.7855156660408287
-0.8672699910854472
-0.9072704154818066
-0.9335852994094731
-0.9844417034526907
-1.116905898989428
-1.2446029389375097
-1.3221244315204745
-1.3595115172962684
-1.3832133999999998
-1.3138923636379642
-1.0231895468812677
-0.46391508337963716
0.22477579969462808
0.5196682534097166
0.60567253
0.60567253
0.6390327349090674
0.6456697873604627
0.5263954492328744
0.3055542704368185
0.0818575245720505
0.009504929674599955
0.0090067618
0.0090067618
-0.06854221725547736
-0.20911538163108806
-0.3842490685763713
-0.5145532658852444
-0.5851306942840196
-0.6488579817668665
-0.7179238277652571
-0.7202514
-0.6599589152847325
-0.6908147663483762
-0.7223629084088456
-0.7841795404521054
-0.7460820301640263
-0.6640936550329829
-0.6539552
-0.6539552
-0.6585272763260488
-0.7186731885843547
-0.7034779912601528
-0.3696681968751752
0.3333772836082727
1.0935714225973063
1.4283039083992182
1.4168827627652083
1.3580997381239817
1.2664489601079523
1.1459520938446774
0.8877337423493786
0.5814097411097677
0.3548682571459184
0.21785117714526966
0.0975444610178933
0.02531017529637323
-0.07468992400276568
-0.21828335089682444
-0.37966769272637674
-0.5134148483260287
-0.6344068972355528
-0.7050873443412939
-0.7967230703280793
-0.861873405157426
-0.9068182480602689
-0.9898468115259911
-1.0380940604238496
-1.0580625755009412
-1.128836619705309
-1.2193180227995493
-1.250621
-1.250621
-1.1846362749892552
-1.134286138906914
-1.1843248
-1.0708758139195032
-0.591704091769232
0.1421191081800323
0.7520265383061653
1.0466302717257008
1.0567059092377986
0.9819615831759144
0.9107097823329161
0.7856939839077812
0.6620274389843879
0.43612875611081836
0.21073224563325674
-0.004239584621717481
-0.1270567358039335
-0.3471447628572309
-0.5192285377565039
-0.7420048946941983
-0.8743677273195564
-0.9997706782503544
-1.1272555847662196
-1.1843248
-1.1874617213063579
-1.2119377847012638
-1.3355947851730172
-1.4362906742844965
-1.5574636091729637
-1.582102
-1.582102
-1.5787448762791565
-1.5567126291112543
-1.5295563897422388
-1.5611616483157866
-1.5682422382197718
-1.4890180677460565
-1.1623207353822775
-0.6195159626987099
-0.002169044038917184
0.6654365770653109
0.9674641544211602
0.9120865061304263
0.8366620233068532
0.8545599607999494
0.8535301366450795
0.7471848292025155
0.5984900357156648
0.4701443556991668
0.35057307616258915
0.25269412612437503
0.15841647743945853
0.07167414932635383
-0.0027849484705377917
-0.08468032960886526
-0.20089407441602125
-0.32218807122196635
-0.44475740722764673
-0.5765829479733503
-0.66987159860052
-0.7531094910355739
-0.7865476
-0.827125994426173
-0.885759329375808
-0.9556374102670084
-1.0041674989764744
-1.0386462505050567
-1.0203441592911926
-1.0178847426271873
-1.0273173568260956
-0.9301219089157376
-0.41448076705988113
0.34070027988259177
0.9954933217812021
1.335655849106591
1.2641761425425997
1.173976477515246
1.083776812487931
0.9935771474606163
0.9033774824333016
0.6665036784428358
0.39869540512348706
0.36301272784615396
0.1236905992371325
0.04227357985514377
-0.12106885916369
-0.2899834363178443
-0.4286916686386297
-0.5787223076338638
-0.7006202501973315
-0.8458103933000115
-0.9264871574167288
-0.9784128480530865
-1.0435669791532542
-1.183471135727955
-1.3021654540362126
-1.35565698321809
-1.4009050343671952
-1.4349154349285769
-1.456480958081489
-1.492684342796292
-1.5365925184097982
-1.4682136500139424
-1.184347445643669
-0.6328273849942101
0.12706483138237867
0.6049223738866866
0.7280017025946992
0.6989593568749232
0.6537457631437468
0.6175628869021331
0.5696559315523464
0.48472108361720645
0.3570685105091806
0.2123090399122836
0.12896072072107445
0.08136758414534258
0.016606006431294895
-0.08935417979738226
-0.23010456286867523
-0.3610103653195927
-0.52136281
-0.52136281
-0.52136281
-0.4868793327731455
-0.4597403235834162
-0.45506661
-0.4089120841889238
-0.35649902483469975
-0.31777436327379754
-0.2725607777298202
-0.2818082470478307
-0.36568458210664134
-0.4070539366522677
-0.16861837189846346
0.6251673666943891
1.3272276637804383
1.8838590091353038
1.8971054702487598
1.7293459806608422
1.57923748389549
1.410621782469751
1.1986703572476929
0.9019287382112235
0.7414930297303199
0.5725123058156565
0.4538554883993231
0.2874926311563745
0.08312315948093431
-0.10996032737365886
-0.2645195618639791
-0.4093988000373811
-0.5128441507652064
-0.5691523903142864
-0.5962913995040157
-0.6265783663348504
-0.6862841783650322
-0.7717635890306447
-0.9059051950074147
-0.91913999
-0.91913999
-0.910577128493557
-0.9054390828148474
-0.9770202912648449
-0.9764764700606564
-0.9214920958899621
-0.4881329226321542
0.1482166577103768
0.9276468830723008
1.2864572445585623
1.386941107960766
1.3357769247588864
1.2787531005166493
1.1319615463766126
0.9400845783769117
0.7118927918389433
0.48854821080678523
0.2920571981948631
0.10572077305156602
-0.025719787890723614
-0.15094737711424494
-0.3095500714388686
-0.5137843831594081
-0.6379013459177749
-0.7150980772598444
-0.7848195575409415
-0.9062971321951566
-1.00678454286382
-1.0517324
-1.0517324
-1.0517324
-1.0517324
-1.0416177077240012
-1.0388347636862336
-1.0517324
-1.0412484234204145
-1.0172388144565196
-0.974437554570995
-0.8839561023535608
-0.45151963401011636
0.19693586924094963
1.033204671165297
1.2627916149207208
1.293391732051158
1.3019581908603708
1.3349307
1.3349307
1.2451328144118707
1.059625263419817
0.887721356890283
0.7357424532803536
0.6379604296307683
0.5797535156518158
0.48271520473195306
0.3429835925458362
0.20802919430316175
0.06321735266691433
-0.026569591645177828
-0.090434208528486
-0.20420302009858493
-0.31818766742792187
-0.4170715166411245
-0.4919773850129269
-0.5384010776106007
-0.6090309915173265
-0.6428827966964341
-0.6539552
-0.6539552
-0.6616843621441524
-0.7323142760508508
-0.6286443100909868
-0.15377308866393813
0.5846351850725411
1.3959657819946947
1.5274813250041077
1.4187299531147493
1.3551139730702384
1.3375719276476106
1.3320253365386332
1.1204153983685707
0.761920225208724
0.6067257462745663
0.4687756557717559
0.21696360080511856
0.14058071475903575
0.016428437817123734
-0.09009147676616883
-0.195177185053979
-0.2802692518203771
-0.37896947990456503
-0.45110948446393523
-0.5188038231640484
-0.591493555586881
-0.6909851513231355
-0.8200593992125724
-0.8959734542158448
-0.91913999
-0.9249674528884788
-0.9723163625386521
-0.98543619
-0.98543619
-0.98543619
-1.035512303005758
-1.1214925545212733
-1.034383364449716
-0.6233938523047644
0.1351621101592695
0.8588508845105831
1.064408188990843
1.0449725287260172
0.9380403782046647
0.861063921718396
0.7330577667626453
0.461667691239799
0.2046969360859585
0.01966530100487804
-0.13462919932659237
-0.3420359210344724
-0.5343877630456149
-0.6682552678343004
-0.7183979408971405
-0.8155736858297831
-0.8783027583220644
-0.9276960544131556
-1.0271876419621542
-1.1188892847330973
-1.1628015282971715
-1.1546388960731968
-1.1180286
-1.1180286
-1.0930791192297657
-1.0659401100400439
-1.0732759308856707
-1.1069571000000002
-1.106790898444938
-1.0636802937873284
-0.9353972026314329
-0.6843021571808093
-0.07233627570676487
0.9084786735078373
1.296658238842415
1.4012269
1.4051845958460518
1.441388062432845
1.4275849007907757
1.2766337743185787
0.9633082722935461
0.746686516931522
0.5232014809015478
0.38222684943145996
0.18111133238392763
0.03446842128751687
-0.06675369705310985
-0.18756123654812595
-0.3271566811580079
-0.4233592147599914
-0.49572573809378306
-0.5671748339155764
-0.6123884276467448
-0.7214057203486011
-0.8229095605736801
-0.9093401476434695
-1.000058672099541
-1.0712279776972122
-1.1330316550724524
-1.1843248
-1.139669696399258
-1.1180286
-1.084972140335871
-0.9424731510537976
-0.3363505487930927
0.4167464440989691
1.2570932652481654
1.3041217104401104
1.2527395004953266
1.2023383
1.1401993813335392
0.9423557239861133
0.6882158440816748
0.4474183448022275
0.2555339552703538
0.17805654454391368
0.09718392527551924
0.009397659292167217
-0.09729452775678973
-0.19661045561789237
-0.2503848755567849
-0.3040453964822641
-0.42316836539392816
-0.5802552113379961
-0.758569861979417
-0.9285411081428507
-1.1101174791388146
-1.2792631346444236
-1.400385300574872
-1.4453903316894963
-1.4120375097277946
-1.4252607075530621
-1.483925913678632
-1.523092306703597
-1.5671734692207977
-1.5226843529008518
-1.2254561992637838
-0.6531649713241349
0.03738466511192412
0.6247145688390301
0.8261366091153147
0.804647972278398
0.7463437849837836
0.7276968969210735
0.6456374951638929
0.4557532030465785
0.25925907192661835
0.16529346598634082
0.1319314129245192
0.07322276272427614
0.004727089866261518
-0.06481661751096725
-0.17556442148573076
-0.23623907752618092
-0.25617802
-0.2810417009154471
-0.33029507224432697
-0.3991710056270534
-0.45973574474356516
-0.5175533289968461
-0.52136281
-0.52136281
-0.52136281
-0.45229528397067165
-0.40644643876981584
-0.37488180131130416
-0.28785838357339244
-0.02599664693914408
0.6204286685203658
1.2190738349499528
1.5062136312597938
1.5035864131123309
1.3976151238179912
1.3349307
1.2350511882742916
1.1130678270333603
0.9191609970181035
0.8060998966870265
0.6625712062314687
0.5738657821538334
0.446523266254684
0.3220069154169355
0.12339239754406447
-0.06552087470232038
-0.14693789817791986
-0.2582225151661499
-0.28536152435587914
-0.33926133903736666
-0.43875294296081635
-0.5838031927083301
-0.6727661493335939
-0.7447767028505823
-0.8126242176376918
-0.8521257935248252
-0.9248952834591555
-1.0030548095664475
-1.0517324
-1.00310583150737
-0.6111512696689126
-0.1165829125507214
0.725110392881612
1.2045480763379595
1.418543190402715
1.4821617547675692
1.5382947035118282
1.5535581808325745
1.430871984138933
1.1507948075351495
0.7788880926219992
0.46871460938629855
0.24031824779616842
0.0519481484924878
-0.08663118110088433
-0.19358389126056877
-0.27825234379983865
-0.3378782402207159
-0.3919980392371193
-0.5794912611443596
-0.7304303245746855
-0.8661253705232783
-0.9575226485867302
-1.0782482768009003
-1.1797785311484448
-1.232364317070669
-1.2504389507353104
-1.1968896744895714
-1.1988508394961126
-1.2393106109907601
-1.2153489085104934
-0.9597706705626698
-0.5082263277859141
0.3671477060156214
1.0019910416056186
1.3432766351994558
1.4190486334383137
1.5012567875144804
1.6155727293289768
1.5800132721995244
1.377313035564157
1.1610608035249936
0.9940524665316085
0.8832040927371886
0.7835429361623076
0.6789769687425853
0.6181861404053177
0.5520542990643893
0.42378195177429784
0.24518302492216112
0.10948798961684947
-0.00369075426022622
-0.14172861688555383
-0.21921445926898708
-0.3739228659511879
-0.46150401618456244
-0.5140080116591392
-0.52136281
-0.52136281
-0.5615340243678061
-0.6310777288672675
-0.47143837656131526
-0.012441287060273976
0.6279172703024338
1.2831838174910404
1.5183704428015163
1.509066710301513
1.4759405143700026
1.3899158735713348
1.2813598368124606
1.116886561627705
0.9210805832681586
0.7249724624804844
0.553943889010056
0.4182488512486381
0.28255380532373026
0.14685876763097094
0.027638453538682495
-0.06541408764024738
-0.1383539350476144
-0.31926255835303907
-0.42619889328042115
-0.5080457703599326
-0.5797819971152193
-0.6573469524632778
-0.7930419902246957
-0.917542517872022
-1.0822516573543421
-1.2013313946822317
-1.382729063343465
-1.4495096
-1.4495096
-1.2463379707455484
-0.8060949731979281
-0.01045450682447957
0.6283799325330317
1.078545576548246
1.1329486411766438
1.195134920266077
1.2023383
1.168957313325314
0.9782573883393704
0.7155531164186327
0.5638352328288317
0.37921560857836245
0.26515046556389904
0.05715854147057833
-0.0480917743997718
-0.1241331710037498
-0.21685811906867547
-0.2944362583435358
-0.358292117695312
-0.45778372161876557
-0.5214206917531224
-0.5756987101325884
-0.5394638305835106
-0.5247025440698131
-0.52136281
-0.52136281
-0.52136281
-0.5225425798843737
-0.5627603544459184
-0.6453964888461896
-0.3749162640548051
0.050243435408499015
0.9766860793570001
1.4429600479660065
1.6621751160747005
1.5932620760172347
1.5426848316181965
1.4035555250892189
1.2737406697287896
0.9568496996275166
0.635559308058178
0.40606507208742076
0.18134959733888367
-0.023546033533316857
-0.1329602109314852
-0.19701590031925925
-0.2948016733688149
-0.4045788991853777
-0.4873015113038273
-0.5772743710986545
-0.7075340812628587
-0.8046568374738654
-0.85284379
-0.85284379
-0.887829517762989
-0.9534340655075628
-0.9921181953485536
-1.0187139134716097
-1.1243279070891956
-1.155599176999857
-1.1474397317610534
-0.92098379625678
-0.35749852101323565
0.32979625366126497
0.9950825322914316
1.263565221898906
1.2601386347155092
1.2118724998240362
1.1689154177991894
1.0466304888405276
0.7481013795663067
0.5032417489206755
0.3075156237336145
0.11279485250099759
-0.10351362363940911
-0.28011489877097173
-0.4607988659040713
-0.6548767061383293
-0.8310537416056875
-0.9662648625811725
-1.057736380444371
-1.1546601150948606
-1.3238615509194973
-1.396214121091607
-1.471682554330075
-1.4807470117271502
-1.4495096
-1.4495096
-1.4376839073927694
-1.4059927750575931
-1.4071377037486468
-1.4248562010959023
-1.3560861363614551
-0.8331124676853089
-0.2414698694306285
0.4507057679994365
0.9236167342008628
1.0974818103134385
1.1076159394441107
1.118218993676802
1.092691677928209
0.9383680453057485
0.7212128313546501
0.5437700195963536
0.43576485932718245
0.3423354440388929
0.2447243495365777
0.14339218163219913
0.031380453001524256
-0.0413990802576338
-0.09951240674386568
-0.16288997482669593
-0.2368129067990951
-0.31899002607718496
-0.40947147829465486
-0.5350665702420313
-0.6333812637444822
-0.6968715073432331
-0.8070062213169878
-0.85284379
-0.8854361044199653
-0.9549330151646295
-0.9174958323171944
-0.6112429755953257
0.0459384694512793
1.1149152483565379
