-0.902573
-1.0634287288909055
-0.9317269152120694
-0.19364405059069068
1.0629606547835362
1.779209034016926
1.9695925317086012
1.6832098407557452
1.290843899578703
0.8154274344318172
0.25872819568595845
-0.028377120395891547
-0.19515279986380119
-0.26520560494504375
-0.36709325105500484
-0.5422702501040522
-0.7368660763014646
-0.9705
-0.9441763530301467
-0.3965200685493643
0.5463472157345002
1.47966731082768
1.6634533188262772
1.4058438475518924
0.9113089339586652
0.4204359773781162
0.004303483455376678
-0.2965529083645904
-0.4226795232834434
-0.44921774873628456
-0.5457239868537624
-0.6540087878465785
-0.8209408265437157
-1.0807806167690743
-1.21915486695046
-0.837042342275989
0.05559233944424228
0.8481468954648371
1.4481625249058891
1.2913879864577982
0.8825656238265677
0.2693129506736446
-0.14461480035441268
-0.37060203501732075
-0.39255919938067324
-0.381802
-0.381802
-0.47724707805810795
-0.6644681075153951
-0.8382924390235909
-0.9230709590000721
-0.4870402593685687
0.07027975378562823
1.1724516305732622
1.4929883488251257
1.3538743753076072
0.9555297908169097
0.5400454145187368
0.2253489991317586
-0.03296780374972683
-0.11675762749634573
-0.16741090222022895
-0.19884648547073266
-0.2510719907714301
-0.40291490028247595
-0.6321903571678407
-0.665055461768092
-0.38147132304017095
0.28497967198906804
0.9300943448951496
1.1964777573676595
1.0740250286384745
0.7851933224214286
0.4379753594026616
0.1307417659500079
-0.015181678069076748
-0.16548794049751311
-0.22932866647740469
-0.2810233495155708
-0.38294300288443006
-0.5980472541731928
-0.830283313046272
-0.961224819655965
-0.6805487942342942
-0.09663284528033864
0.5135629498467478
0.7606615841702403
0.628636166565311
0.31556306809223145
0.005437580534726677
-0.24838442633050237
-0.48003823452135447
-0.56294
-0.5733807263715064
-0.6200037364875666
-0.6957884088849466
-0.8369523324269141
-1.0805319724009097
-1.2734370108791258
-1.0573505041383793
-0.4317441187006998
0.24932272622964502
0.6992984403769161
0.6333199533866533
0.3497127751635299
-0.008526997905453762
-0.28279173767052246
-0.47736705653648737
-0.49453698049043393
-0.44998166091787006
-0.41223194953359843
-0.44915934369434884
-0.5452288339991384
-0.7225948960751476
-0.8150635161155666
-0.6746110437057861
-0.05796214227404073
0.5956427064517971
1.033520322586016
1.022260095295582
0.6859650424093829
0.42992387622172323
0.15212969219992645
-0.015418216680306504
-0.11975591768261672
-0.1580924549325028
-0.21319220825807103
-0.31542618522883875
-0.46675343137765196
-0.6221725678086779
-0.8080889114280895
-0.7722712967607526
-0.12442020401841222
0.4089794612369285
0.8378751560302956
0.8382141332160599
0.5886979906578012
0.3524081380539685
0.08930310324321389
-0.06230654016451924
-0.19381717370607632
-0.223307
-0.23923910232322654
-0.3218083254143823
-0.47915915159223443
-0.6906726492532429
-0.9307434005274178
-1.0144596704934388
-0.8317880589822058
-0.2912438320641353
0.3970410850156176
0.6962508268647548
0.8505510611084648
0.43554263613659916
-0.10835328470823609
-0.7178324544851578
-1.0745154529667966
-1.1817081514395862
-1.1570910142642301
-1.1481236043346152
-1.2239481292699255
-1.487542350292047
-1.8297208518055081
-2.078500329167113
-1.833146914453875
-0.7952131655601425
0.5905920284049602
1.6141663280142526
1.6170075195497071
1.1207244297499794
0.4406374154910375
-0.12468877971042003
-0.5167849006553025
-0.66823774081021
-0.6761510000000001
-0.6862584224797217
-0.8203136217316335
-1.1008564016400795
-1.5682118400368499
-1.9157020599630168
-1.8775426388166183
-1.073550631017063
0.2652878161049216
1.4241161321239075
1.5650133365547723
1.1415232579518595
0.5581079931478609
-0.11052896164300542
-0.6191252919857837
-0.8484245318873156
-0.887405626920085
-0.8790190055729269
-0.9522217934390819
-1.1548253977822176
-1.4684150590547376
-1.8045148950439494
-2.0147270251528315
-1.2813701004078086
-0.08819769529299548
1.3066768041023107
1.314388453687823
0.7312725238343795
0.1800580135634156
-0.5155289667672669
-1.0698488199283576
-1.4962814384315688
-1.656593003059779
-1.69505
-1.7108596706918884
-1.8398680630023423
-2.0698439363199204
-2.2045
-2.2045
-1.815917099990446
-0.6111171251715627
0.7861273654198222
1.4503939786723656
1.2304450587281464
0.40173388825817336
-0.4015886457985108
-0.9714236353761148
-1.2306730432848705
-1.164148451440661
-0.9635043403220673
-0.8560366888981428
-0.9154326257509656
-1.143890618279348
-1.4481899641019205
-1.4659146887012293
-0.774062829510373
0.4933974916726714
1.9027613700461117
2.52033472753075
2.24206776465829
1.6097656530865971
0.8700080794841416
0.32921152939732323
0.013352560498981855
-0.11312632074529763
-0.13902658973270887
-0.19336211685049254
-0.35949644077901244
-0.6723922822983645
-1.0458116067658911
-0.9860827905156025
-0.3131275497077453
0.8373541441489905
1.7199329436070752
2.189080031657642
1.7963272370422105
1.0474775560981242
0.5083227115342241
0.0537887265899257
-0.17405281365494937
-0.27312505049672886
-0.3015456250387783
-0.40364155547231195
-0.6085853084345119
-0.9110831663836001
-1.166557692015533
-1.231555739140373
-0.3586894080365275
0.7605965274255382
1.6038068821142002
1.7314438280241822
1.3222915207947794
0.7382312192862974
0.12380341694566976
-0.32525468645952915
-0.6207670633077209
-0.725744965985545
-0.7549045735463908
-0.8468533514492593
-1.0408347116734376
-1.3419114335306257
-1.6728320347417394
-1.7531403396306748
-1.0579660415417167
0.21919027470732333
1.3798168571577527
1.805863457103584
1.5379865976397884
0.8206718255297034
0.10362244639941043
-0.33524826852845435
-0.4782609338851207
-0.4040055255556134
-0.3057088638948863
-0.29480346350924946
-0.4345495188781888
-0.690400632233983
-1.0154644673081976
-1.1934736434627047
-0.7001091393026037
0.49900834625168594
1.8176034036478748
2.348642727945779
2.134804737090549
1.5789159977782692
0.9915071854337685
0.48546110539136883
0.15899037639806773
0.029581428592724196
0.005932507388802756
-0.03150596132110121
-0.1809953746034883
-0.43091198908418715
-0.7980192606644514
-1.1027074148963003
-0.7526970848596701
0.25361824336790695
1.4054159028993811
2.1566770637877486
2.1302582757289468
1.7179310676843953
1.1371547915860254
0.5642752539785504
0.16365566198736908
-0.047013700342905765
-0.12045704160882612
-0.2088959217429172
-0.40113855802396264
-0.7695337973120134
-1.200461624841195
-1.653927576538159
-1.7400048153619547
-0.9836840787419748
0.4040332562994512
1.5092146081142248
1.680548027476037
1.2710243720916086
0.6652697255340995
0.06861036426502742
-0.38942582413639854
-0.6356161987798099
-0.6555903729615693
-0.6257328180160614
-0.6665629617433998
-0.7919967591640529
-1.0748046815372427
-1.4031779434291214
-1.268587505590381
-0.4368620812713414
0.8140992132606143
2.0982617399457606
2.4414875694232645
2.1507990016602885
1.4035893631573484
0.7960172930787354
0.40338817112818637
0.15211677756687264
0.07870493760494471
0.06068153596621611
0.030443082201310662
-0.11648220903729462
-0.3950414524981497
-0.8025834611562075
-0.7281816305957663
-0.011005210880529637
1.2864476383539536
2.2832857863364273
2.5420570667385496
2.0995072913412614
1.4963171056243554
0.9615930881673393
0.4791625772096761
0.21891060369893603
0.019139633573715537
-0.08816618017393628
-0.28595997460663364
-0.5387178468800138
-0.9418861668377423
-1.159549299511909
-0.8385189969099079
0.1300752107554659
1.265520496733528
1.9843838884903147
2.037809492157219
1.6284899398294188
0.9574624580778526
0.4687012971522192
0.014590776370761172
-0.17556189475310707
-0.34010239327949165
-0.43846006548947725
-0.6594287420575581
-0.929473291217809
-1.2822759884027297
-1.482693503586318
-1.0878404164035929
-0.14012815320744665
1.1417370250428078
1.9037270128232313
1.7331725879374762
1.170523388463019
0.6898422486169746
0.14161532537576454
-0.03160472270279713
-0.14716682022149608
-0.12059702733644018
-0.11294768857390856
-0.20523640663680565
-0.448708202549215
-0.7863380207458324
-1.0222968374451824
-0.5685267165973412
0.5420952332750256
1.6123751421535375
2.016203461056486
1.8492773204621826
1.3428291506409817
0.7280954493987641
0.19464545314713894
-0.1004841752469106
-0.20899029530517954
-0.28737087412119294
-0.3924765412877492
-0.6071523813036643
-0.8991818401829064
-1.2683177138969195
-1.1528574205494009
-0.4300689895390817
0.4466664953938916
1.4379968361727387
1.5664108917174833
1.233596239732526
0.72008243096056
0.18406316074940338
-0.246993362241838
-0.4963980075276051
-0.5986565201583575
-0.6239549234933218
-0.7648740327151259
-1.0533606123740964
-1.467616473862538
-1.8987915634919104
-1.9701923791691838
-1.1387554350846638
0.12971658917888934
1.0664167293052063
1.189068328936863
0.7435728451627509
0.23946032405580775
-0.24510958471874558
-0.6961796824511666
-0.8807554882070612
-0.915235179505703
-0.9068397369329531
-0.9603747201481692
-1.0915255344303558
-1.4463021106581198
-1.744263172016306
-1.7050648650550426
-0.6923164737070786
0.6046015110436666
1.5866040680506566
1.6515966462265275
1.2030318469028376
0.6377433628766307
0.05072056960171584
-0.28846208097800047
-0.42400669852718254
-0.383865889360345
-0.34973418668824113
-0.4289258821372728
-0.7034580609786392
-0.9824427561291269
-1.2046037570724097
-0.9378818673833121
0.002325366233437459
1.0459304471536885
1.8915816758985466
1.835282895306349
1.3452771607645546
0.7574095365902273
0.2960723919865949
-0.013180574629428857
-0.20602188670027538
-0.245935324612231
-0.34338886244208033
-0.5345496707820014
-0.8411602500282542
-1.131515809296418
-1.300347060142934
-0.9145605332078957
0.1910074674639946
1.3815098255044698
1.7854328118821743
1.5835544330586824
1.1130517647791534
0.6294146374763514
0.20139747183776155
-0.11851859932880865
-0.33519662868422734
-0.3833696246679995
-0.43891079525003657
-0.6575200125508104
-0.8986645666927416
-1.269134663617165
-1.527816952601325
-1.0455852902593994
-0.006598868786857892
0.9733901263441405
1.386463219178876
1.0891622745275369
0.5707189758760183
0.048019434208499884
-0.42640046927498143
-0.9151828793284956
-1.056296563428926
-1.082815953115947
-1.1438973404496982
-1.3056792519899807
-1.6243813837664787
-1.94412
-2.0008505551086717
-1.8325885688720507
-0.8156658337140265
0.7292611220538712
1.543220711990597
1.4320583424578848
0.9860478169325879
0.28245067029683535
-0.2500595740012054
-0.5356157696746718
-0.5958588954357417
-0.5272082650115391
-0.4982227161279063
-0.6032640665264436
-0.8431823614946179
-1.1968920104995369
-1.4658112863633002
-1.1317839164791623
-0.059885886508895314
1.2157860310156128
1.9363242000128624
1.8575280991311272
1.3664585359859776
0.7971535478460191
0.26659675510355935
-0.10552776570029851
-0.27142992177153413
-0.3145811133547563
-0.35859384880924516
-0.4485104759114541
-0.7696077840167207
-1.06557628148161
-1.399995691588441
-1.2057161020923428
-0.02349461758657062
1.0829713275000628
1.7761318935680774
1.7857736847491832
1.416209336687759
0.9365023957408555
0.3593522628829524
0.006839332002216675
-0.2515119233678925
-0.336518
-0.3696035258088624
-0.48510562576663435
-0.7271873887753313
-1.052271156787439
-1.3812270617824836
-1.3360588040793746
-0.6718262139619896
0.7200504675062444
1.3660761597818345
1.3675195918500267
0.9526851775722955
0.27699247133497157
-0.13489909902951752
-0.6529200861514598
-0.9540514002118083
-1.0008474710509263
-0.987481
-1.0313061372782881
-1.259899056570423
-1.682899121370934
-1.9876363516074353
-1.975449861411602
-1.1378716153313249
0.25031920336872465
1.245330268067508
1.610450847930595
1.289507448810095
0.6773744262515693
0.13929837481773769
-0.24440404591545933
-0.4028126971243113
-0.41015737840544547
-0.39828047066538885
-0.4684832461555307
-0.6579596962022272
-1.001985835648019
-1.3227641394376648
-1.2849465088421015
-0.5667112690865476
0.6656574196753382
1.8110303533347099
2.190379901130229
1.9280963051111408
1.393581806437838
0.8156768524716256
0.38176909728500463
0.11511248553994255
-0.005717800073231485
-0.10823782108614036
-0.24599449717448532
-0.4509596965652327
-0.7818961037009798
-1.1458861065295711
-1.184553342262839
-0.6242260054900137
0.5109901659947914
1.595234915222718
1.9872907520884808
1.7037393835874175
1.224434122609326
0.7744181553915039
0.35577086749276904
-0.0030111569537635413
-0.16022345370187727
-0.21667034310365962
-0.3094905553560444
-0.5022001264682898
-0.8227188791816982
-1.2005004722260038
-1.4430849430300823
-1.0666562732356937
-0.011574663499205995
1.183929631113472
1.7796364354341092
1.5838131626854075
1.0552799550298921
0.403891962128841
-0.10689912019413253
-0.5403083764262443
-0.7468053878705703
-0.7858349389659051
-0.8051665117288587
-0.9148229755934207
-1.1928303970889866
-1.5958279847036345
-1.862976761609092
-1.5703214074770866
-0.42951183266260695
0.9840250301177651
1.8317081482304884
1.7908525417372751
1.233078552362707
0.4953185200507062
-0.09024349155148442
-0.4711526403817724
-0.5729611085682755
-0.5033278482053447
-0.46335208657309557
-0.5572173849946283
-0.8000781214111872
-1.1457746441060224
-1.4755367921159637
-1.0840395978879285
0.08543414758215584
1.5943146556355088
2.5127355079580704
2.5893631895518996
2.0882030071659443
1.4049651220617454
0.749039826753573
0.279143251800045
-0.017612142474197484
-0.19464564061721498
-0.34325281086736836
-0.5739721604697868
-1.0145399650713487
-1.5345756902406582
-1.9271520968999034
-1.8486104515812063
-0.4589416309690837
1.4221423912687847
2.187917424596372
2.1373529271997618
1.6356621885374907
0.973961667902228
0.25112484976554983
-0.3092272546660362
-0.7228925396843675
-0.9123981616586032
-1.0312944029305116
-1.1805891111845301
-1.5101410180851162
-1.9292822416935327
-2.05733
-1.9007383634554331
-0.8551579383080437
0.8808676885439088
2.219122581705213
2.337628749839986
1.717717349968142
0.8439452490751645
0.05507540401148703
-0.5184132389170769
-0.7647561273253652
-0.7162132239966841
-0.6331700338144601
-0.6985688666858053
-0.9500340816840697
-1.392709463083047
-1.827647073243373
-1.3733427425998033
0.16977117997774793
2.1145742688742644
3.085031104941433
3.0381168059125754
1.4346545989125519
0.8185244440638608
0.4381942176358087
0.0902538363235817
-0.007230927396119691
-0.04907149942966198
-0.12655979938031395
-0.21506705339716947
-0.3922459308729149
-0.6246921734262133
-0.754357860685327
-0.43989176568494354
0.10757605814457039
0.9194958919462927
1.4796806069318387
1.4113424302865367
1.1615998136170127
0.7763607502019432
0.45620790144608425
0.12973939401967727
-0.02035636494837703
-0.05249812641938092
-0.10385354478777682
-0.23283200242773872
-0.4308295576778831
-0.7339177803106509
-0.8577420794071094
-0.5730352488779311
0.17243622181879614
0.7548325173095405
1.2271968727875049
1.1352096252279085
0.8398966505837777
0.34856258112852506
0.06029928746944008
-0.1919663689268485
-0.44920965066326823
-0.4797177461561992
-0.5459167636104159
-0.6488295426323156
-0.8348344044348014
-1.0360610486689443
-1.1254645809740682
-0.9087581616099011
-0.08294184566316143
0.8975935172713266
1.3585851641338567
1.2913163856635637
0.9511718825009993
0.5945481496883762
0.16080240993253248
0.032442153483495995
-0.05076109827560837
-0.06071949240024264
-0.1147834168848432
-0.21630084371702635
-0.3950088652095728
-0.6663639147482145
-0.79596733140303
-0.4004363039103355
0.3798102478234665
1.1575927418989898
1.504242463747664
1.3311415488563987
1.0578655144562603
0.6810519044755857
0.33939534203766564
0.15180552580952125
0.021324224619690663
-0.0029256281388878604
-0.07356225815882998
-0.21258152336168074
-0.442065438392136
-0.6595926190768362
-0.7766411570731365
-0.3241574726506237
0.35515969872938985
1.2030005857696286
1.4632760546850927
1.3114760979326716
0.9430267347646728
0.6362541405052332
0.24627328795111147
-0.07619665386713347
-0.20361209118756543
-0.27241815772875355
-0.3744611326504663
-0.47955207796509347
-0.6959919470469483
-0.9437652314236759
-1.0742715018151399
-0.9097182388217897
-0.22526776367531887
0.7948032217849885
1.1855681596772845
1.0367824042469422
0.6505667139713704
0.40281784030842044
-0.01883958740728693
-0.1901637618673241
-0.32644677382821163
-0.3044370146080088
-0.28615814772676645
-0.3378452608763438
-0.48444472332357336
-0.7200579217915228
-0.8525504162756152
-0.5312382338705877
0.18452320913531212
1.0343208069310752
1.4616975983171223
1.3875772098181822
1.055371818862589
0.6788174456999597
0.32736347281100786
0.08001223834582466
-0.04791034776553725
-0.10148114678507085
-0.18087188901310552
-0.3500299121140107
-0.563552753357522
-0.81947450210798
-0.9907891928497283
-0.7400733347877589
-0.06356717217230232
0.7368280238474845
1.3037508398298843
1.2745189738919074
1.0443482520970298
0.6518731028883753
0.2660429217085831
-0.0356763715188122
-0.2440805964892881
-0.35800664113716346
-0.4262291897168165
-0.5650134082547892
-0.8007819772790756
-1.057461494381718
-1.2955693701598725
-1.2456596681000658
-0.6229517280884296
0.21199182725821655
1.0413358355774653
1.2483443619300931
1.0014492368552215
0.5587106932903514
0.09308126964077351
-0.26876752694489153
-0.5191877152960599
-0.5529470939488558
-0.5153978467928475
-0.5198693626165984
-0.5799146241148077
-0.8279371402385075
-1.0389441328902638
-1.0235773022569388
-0.509419126901376
0.514986010220525
1.3376615754955175
1.630451358320196
1.4913941177162446
1.1328064496295784
0.7144076242701622
0.3312123239852056
0.09098552088502548
0.017094062162953283
-0.017439192725532737
-0.08667897544296554
-0.23449199238868987
-0.48828433669175186
-0.7625888181110551
-0.8144765308155815
-0.38532457008391735
0.25298480677075885
1.150431322356869
1.5321286512295413
1.4223597120876073
1.102709247030826
0.8324367356839169
0.3133679294452466
0.005770182986567035
-0.08093204704555342
-0.17945853513737745
-0.22427505944097426
-0.3946668178571254
-0.5800217027727161
-0.8057105248591185
-1.0111182468247775
-1.0057810881077722
-0.3718249043519156
0.5204747469585234
1.1792463809736646
1.3443582703204247
1.083213479834678
0.7418471514445252
0.2648950178679621
-0.049498069656713044
-0.3092453294809311
-0.46482666625118646
-0.4946707672919574
-0.545417685055945
-0.6906723495025399
-0.9250969670655469
-1.1839704262972768
-1.2689112365606843
-1.0484764728479592
-0.06657920123341998
0.6999653171675977
1.201168756698453
1.1567536099612452
0.7821303971249193
0.336009862766223
-0.013013618081233802
-0.2098081910320921
-0.279912
-0.279912
-0.3003045725791391
-0.38034427421362094
-0.5493963715087469
-0.8066451992151193
-1.033621319133176
-0.8873493651251974
-0.25918094915082696
0.6232038862203382
1.2767996770836436
1.439121897737349
1.1441049111428996
0.7142818064381327
0.29663820477154756
-0.007319031541333315
-0.20025902551041064
-0.31005701260904656
-0.3660315049969617
-0.43893360221839073
-0.5833657008378313
-0.8204159909739352
-1.086919727663834
-1.1688146183904184
-0.7993318019534144
0.11029438278695164
0.961632067302421
1.36623665837383
1.250656565132023
0.9099309906444492
0.47546234116679253
-0.0036419268537504212
-0.3639646937558342
-0.5999811055844642
-0.6761510000000001
-0.7249779906379132
-0.8420077356787334
-1.0712597570913962
-1.3400360262596074
-1.5710930747684226
-1.503819484728119
-0.8766121581206299
0.19752531021993414
1.1595915760518927
1.3194221894824079
1.0106613649864244
0.4356664123816314
-0.2512414245958279
-0.5918639635266083
-0.6319765419627597
-0.672089120398924
-0.7122016988350841
-0.7523142772712355
-0.8116009733946462
-0.9671385529918023
-1.1931365466483996
-1.2117957352367539
-0.6180819777877148
0.6454990303643825
1.506858408865599
1.8627897773437048
1.6564053287378144
1.0788867594988338
0.6342771215318626
0.08610045477919723
-0.22920085441018154
-0.3594932600095904
-0.4111019640523321
-0.4733585442463444
-0.6113744494401617
-0.839531844157108
-1.0380059135083968
-1.1661172576840113
-0.4220454568083137
0.5612441319004584
1.3333677465755458
1.6861787493051636
1.4588711309644706
1.0431828988177982
0.6043773048114042
0.19996992132746685
-0.10631241166575563
-0.24844527391743526
-0.31644045034989104
-0.358438742733543
-0.4954455374545478
-0.7363643158482233
-1.0409415542158698
-1.0362067532624524
-0.4833342634826666
0.5186559968394232
1.3446658709658128
1.53147
1.2591025383672731
0.7889730833894069
0.3228943745050309
-0.09910949173093289
-0.349052466516486
-0.4495777920296826
-0.45680992819097826
-0.5138621700382988
-0.6268572326313319
-0.8154181506446907
-1.0627380790717866
-1.0369007709973066
-0.411540145031715
0.6527238661918306
1.3516259562550599
1.60692
1.4728978438336204
1.024678685917308
0.4616108213154063
0.09596325623153962
-0.0927582874935172
-0.14452651742766096
-0.11326210520490089
-0.15170052094545444
-0.29153823832562115
-0.5752149778684369
-0.8004418053989344
-0.7954713876253976
-0.10330435106112608
0.6811432309938916
1.5803033063691467
1.7565485886053847
1.537654803957528
1.1060123972841314
0.67304395579541
0.33525185162014265
0.07554817642365946
-0.01235789083647965
-0.0643631146919858
-0.1587193927574033
-0.32378651453624496
-0.5394480186324994
-0.7894044227453119
-0.7209079438863368
-0.1783402222645306
0.6720914987347739
1.3531387747945753
1.4387990075483432
1.2361034079554611
0.8843105465408727
0.5212958380015262
0.07543421213841567
-0.15389638295760766
-0.33260689886236405
-0.40158219788377514
-0.5056227707015493
-0.6592040572979686
-0.9405970060142022
-1.163164007115773
-1.1978160203794983
-0.7233153183046683
0.30024968445466055
1.0307419044029353
1.3438388743151803
1.1787427292858765
0.7797647829844583
0.3075292960803882
-0.08484955797079194
-0.2401978461149582
-0.27772163333479044
-0.279912
-0.3108093971633383
-0.41372084401513415
-0.6133261222965258
-0.8353350425447749
-1.0028052455118415
-0.6588443786769638
0.2503146355739102
1.228831488023829
1.6978392875250314
1.5908496074229703
1.2634027474810479
0.8189470985851377
0.46769904549813246
0.17077059747377857
-0.0033013388465810423
-0.049297431587353044
-0.10694936503533617
-0.2220485500599293
-0.37852613687183767
-0.6424982777687143
-0.7942715305601196
-0.5756182202055129
0.026824038748854306
1.128892088867877
1.476831208483192
1.5333095862150472
1.2977002442683192
0.9428596450606173
0.5971162013812865
0.23725996608940358
0.06909071294183738
-0.007272445330583535
-0.10087979079180419
-0.17246527221334645
-0.3472389197871021
-0.6007480398945667
-0.8547355304159983
-1.0942400173398368
-0.8119197760783182
-0.07678042324587953
0.8125301393344703
1.3357105759050603
1.3058304405403147
1.0251808688491955
0.636450375932973
0.2358119102322705
-0.05920138022547852
-0.2830412002295514
-0.32808688404595726
-0.3820915884145365
-0.4471332037927196
-0.5962873509395289
-0.8607188418805156
-1.1219518208434416
-1.2868179248453981
-1.1942064575299511
-0.5251461833188977
0.49870745502309133
1.399378725277671
1.637222289374822
1.4582579083361806
1.0936324172858027
0.6853883350635851
0.29685376571767325
0.05141801007779878
-0.09386559379721096
-0.14850276904497298
-0.21331414910667218
-0.39423276708242777
-0.5857136808387905
-0.8215498190523549
-1.0496196404761882
-1.2585779584119172
-1.12182552491178
-0.35836369127081097
0.7457183261941429
1.5293889720050209
1.640154751976652
1.4046541176047287
1.0547191878063045
0.6375660232795938
0.20638752486118747
-0.049822919099119206
-0.1604162618384258
-0.2318484251205626
-0.328380006142868
-0.5003392457757642
-0.7198167111788076
-1.0481007433501754
-1.231820151575719
-1.347590092158613
-1.0885102663843753
-0.16219408218741987
0.7967760796039042
1.3050724571253067
1.4893996395332731
1.2855618041569208
0.8426274344433413
0.3835137956525473
-0.14039320788798076
-0.3656200354185274
-0.565212596825467
-0.6034105492115817
-0.6794220576749714
-0.8347036136536534
-1.0538230872125784
-1.3579709333400805
-1.6097782471330586
-1.7601503752784071
-1.4741664870099846
-0.4386160522278372
0.5656960120432261
1.4346792249118845
1.496844602451119
1.065456478649221
0.64410958899407
0.21155230169305478
-0.16632922952707532
-0.4406334497352649
-0.5063340000000001
-0.5102684165128114
-0.5628427261712727
-0.7111615112778472
-0.9467349652693839
-1.2463591123641882
-1.430176501330723
-1.3926787012462643
-0.5565050573827455
0.6641029878779412
1.5834845341527062
1.8872349756849371
1.628199351184168
1.1399370521896792
0.6367752670702211
0.17826673737649157
-0.10997306220910101
-0.28387947629358595
-0.3869125372384469
-0.5194589950828474
-0.7013187174060698
-0.9630243452599644
-1.2283354897615468
-1.4499896561697159
-1.4649900296272922
-0.8628973057420615
0.149917385407429
1.4932550552945107
1.7697554324038738
1.5549148893828475
1.2297086493050953
0.6448275959292931
0.23422176692124735
-0.2393346526742527
-0.44959331363922644
-0.5880565275288041
-0.6745970762837958
-0.8168722767667073
-1.058429471403236
-1.327026097894462
-1.5787831215276156
-1.666327111926715
-1.2772502915957702
-0.263140459107374
0.8444487565994074
1.5830759033055526
1.6444451378201663
1.1907131970911191
0.6049823265836004
0.06703589398125848
-0.33579348128550984
-0.5505410728803901
-0.6151420342655047
-0.619545
-0.7010945744154633
-0.8036446856045378
-1.025368670095654
-1.200955860178616
-1.2760452628023158
-0.5853905120376801
0.34140130373483846
1.5908414130874151
2.0230456525042846
1.8770440890137468
1.4843920466291034
0.8515115723228277
0.35264929271771545
-0.023463773789396236
-0.20734814859983336
-0.2966464085342467
-0.3547886058023736
-0.5194204769224844
-0.7415106356199338
-1.0253025585288935
-1.251114860040438
-1.2487011662953305
-0.6949713034730113
0.34164415598563547
1.3079020691684191
2.0205808956142457
1.788674059526299
1.4318798449664096
0.9914177633937148
0.5064866433602573
0.14385046318793726
-0.06261177471513997
-0.17480254190261219
-0.30114276872201096
-0.45613439882791484
-0.667432570796077
-0.9533086812179818
-1.232824288363724
-1.2045911700476326
-0.6011780661788391
0.45334522077467965
1.3781974578951914
1.628687448610699
1.4060721205871844
1.052674885952797
0.596768910215502
0.05740566816538076
-0.31447787678435707
-0.47682526586825397
-0.5279487569682201
-0.5929669711852756
-0.7317931608628997
-0.958176418447422
-1.2098497193254911
-1.3570117604636756
-1.1715192129899286
-0.43455053918500725
0.6654325725905664
1.5863291250031752
1.8311018228040532
1.5806550180196923
1.1328003740056474
0.6782074647218882
0.2749175084365898
0.028168139995701974
-0.09319118245449823
-0.18195617822630195
-0.29434768658583016
-0.4734197265904231
-0.7438549475414626
-1.0037338859370224
-1.1636349234534151
-0.831956067800635
0.01738688678164446
0.9972137432901291
1.6825659374554576
1.8798404905278558
1.5984182826435438
1.1768018488466285
0.7304276663701036
0.2929250134525299
0.0011978632893625274
-0.13420572635685263
-0.22846884051897715
-0.3327362309735306
-0.5124924778978901
-0.795087011675145
-1.0663412628821598
-1.227361062009911
-0.9954229862940607
-0.24252552742922784
0.861224453250149
1.568628127384125
1.631448861647068
1.314208531107353
0.7940922628998032
0.28857679489550214
-0.04093097346019281
-0.29393342255776694
-0.4321871777853447
-0.524175571584468
-0.644068650003184
-0.824460083797212
-1.0662775766715926
-1.3267239573217353
-1.4076298910978047
-1.0105468565470197
-0.05028796994793838
0.9893470211178856
1.5998581822996571
1.5304899904411262
1.1610814924713615
0.6440525949751532
0.2009463618887088
-0.11797413523498226
-0.2569106927007432
-0.2870149229604102
-0.3266283574990187
-0.4066014464636958
-0.5916038369036166
-0.8835351483466876
-1.1464846640245776
-1.2029939807699828
-0.6729924355410164
0.48436588141463965
1.3996181080472447
1.8193438212261854
1.657935023598615
1.2866002400123209
0.8294531353704502
0.36057423881752604
0.04896205932762279
-0.1252478496672212
-0.2472602237026994
-0.3636019854111504
-0.4906888838989628
-0.6614303909635318
-0.9259399554868648
-1.197347134307475
-1.1442422887111852
-0.5351165674014547
0.46458532653164325
1.4002480701524456
1.753934294157955
1.6343704250369118
1.316154772287222
0.886694090527191
0.3887508275644731
-0.0025485347557444027
-0.23002404749890457
-0.40558941617855887
-0.5207519797459175
-0.6579490210801865
-0.9141088729568096
-1.208058278096668
-1.482294229111634
-1.5976012184434532
-1.0999595167500351
-0.22146647261892582
0.7713148478031056
1.5493598837020526
1.5224587804967682
1.0751312029744184
0.5446742940883138
0.04596190572055825
-0.32245059750829097
-0.5141753761785757
-0.58296956433091
-0.6390334901432864
-0.7413510948550383
-0.9328070723172515
-1.1633104170540793
-1.3568394459762896
-1.372446489383414
-0.7683380933051825
0.32197243642137674
1.3598943565499133
1.9005684453785943
1.7836070429643747
1.3673092636996333
0.843637609689942
0.28912606808749747
-0.022570596743408583
-0.2190517564245768
-0.3061144341302824
-0.3973173613918166
-0.5844557811872628
-0.8542115229921345
-1.0765379326845514
-1.3232934986839333
-1.3174575795994081
-0.6379486407974231
0.4988108722653205
1.589239559152783
1.9356155052424968
1.7687732896111477
1.3577733624271817
0.8775189003415329
0.3797965559903048
-0.01699414260512816
-0.1670168245317177
-0.2867657618837951
-0.42705866416200605
-0.629596895056034
-0.9104805376083892
-1.2060951786626126
-1.461980321390086
-1.4033832359888558
-0.5763037919758423
0.4941252066838515
1.5110534856875222
1.774556025951319
1.5541444911232962
1.047275762539838
0.4469830908557466
0.01845221884876158
-0.4077399313293094
-0.6463341486078659
-0.723722879927355
-0.812656605681314
-0.9635467585863436
-1.1675950974593494
-1.4576122175976696
-1.6108248942205083
-1.2567438204020729
-0.3351069463365436
0.801794018666463
1.548624395875914
1.6928014796035917
1.3229518555885884
0.7083919973505979
0.21974435743194493
-0.24611951872699742
-0.39258773789757234
-0.44860639007395886
-0.45707793633947724
-0.5398165744542063
-0.7149150900221126
-0.9882140638439659
-1.160872739107389
-1.1215206938754987
-0.3235097734591078
0.7378023324145065
1.9149106109867098
2.1147982946669717
1.8502544761162019
1.390501493148295
0.888163099182679
0.29372303753579576
0.000781861969378822
-0.1476725069480167
-0.24724629689527733
-0.3707698269068701
-0.5381350667339561
-0.7813798494807591
-1.1194584044955418
-1.2910636145048144
-0.9451169644909683
0.035784198737980555
1.2196851870095582
1.8247332995851002
1.7848728511373186
1.3632899101649874
0.8903158005231273
0.36310519091185967
-0.02133544500607352
-0.2514315268920866
-0.42397285187044514
-0.5177091318863448
-0.7118059573028783
-0.9455114012891395
-1.2368934690182423
-1.4858301427405236
-1.4460977690568073
-0.6373257195995834
0.3536529046055681
1.476143380144328
1.6422564205254704
1.4021142334132826
0.8830743204538817
0.3156848714850218
-0.10634142373734139
-0.4297559268364355
-0.5017669553219984
-0.5555666409053437
-0.6056821442581831
-0.747209664539505
-0.8563583929846037
-1.0839623336510067
-1.1282679897181997
-0.7176197635165638
0.38369037655546956
1.4264830556834842
1.9138985069665662
1.7929030665684982
1.3720108055410143
0.8340044419489907
0.3101898504147186
0.05629559890810421
-0.07693175735629236
-0.1361469097996996
-0.26605333528865416
-0.4581270775983777
-0.7395175991231941
-0.9876945803324204
-1.1745992258149325
-0.9629183780429555
-0.10103498605217515
0.8956878436380102
1.6877728853175809
1.8201574957160327
1.5598866844187715
1.1265487099988833
0.6578748251286722
0.22885189205159887
-0.015182101133408813
-0.12283593861773255
-0.23684773667465547
-0.3368415828435162
-0.590608879220492
-0.8444004083386636
-1.1801895320409088
-1.3032580032802858
-0.7659569780291603
-0.050725420954922606
1.102166967666783
1.500818802536951
1.3880588433272945
0.9895571851968485
0.4791256227213999
0.02326526368990761
-0.3208291216035134
-0.5187830746779336
-0.5863932275063257
-0.6524944544368179
-0.7699099446964577
-0.9758111260493438
-1.249087994939915
-1.46863
-1.3276970397191343
-0.42188878471056074
0.6638912172355391
1.4862404630510206
1.729031031723582
1.4555492360611137
0.913478652224788
0.4794502045440994
0.08545130747085664
-0.11708480872449384
-0.18250129297533824
-0.2365228061321286
-0.3271092209162185
-0.5280652425579095
-0.7897701066767752
-1.067273076521683
-1.1234198197887992
-0.6081797293582986
0.3529562273752197
1.2438910431292136
1.7328658023537984
1.6492964479079533
1.2647737090615794
0.7782923050646118
0.36229486618118756
0.07272785547898199
-0.12396824980437313
-0.21742202738680969
-0.3554293306983498
-0.437997434104774
-0.7233327479266098
-0.9658156217477611
-1.081173258586619
-0.7869555726146501
-0.14969506777052716
0.940049552277977
1.5526540837158485
1.5911389649983174
1.3225191921284583
0.6697093074596723
0.26172901908543805
-0.1052072687593143
-0.41007878752872345
-0.5331573594121852
-0.5947856127175264
-0.6595973844353282
-0.8768312611880886
-1.1268477764630638
-1.4129813374470037
-1.45871778529983
-0.9849668233354685
-0.010745050610618978
0.9461274133954716
1.5056939638923366
1.3801749528627496
0.9805557309302102
0.4719176834621227
-0.013875149132888537
-0.3124320451805447
-0.5183997718997576
-0.56294
-0.5729554108292336
-0.6744291284680382
-0.8527400708635594
-1.0944046356671626
-1.2858552298346204
-1.0908452147470153
-0.2871333923426808
0.769274225992071
1.6484225765818135
1.8469329650251856
1.6020037740047108
1.1140232801073424
0.5936348710308572
0.19439412819619475
-0.05127784618773523
-0.17914617069661373
-0.2611237722433206
-0.3778711029155631
-0.5556597816094497
-0.8080187993152153
-1.0876513466598705
-1.0572202365908063
-0.49403227639417374
0.49948425008721514
1.3694573684659765
1.7465700000000002
1.6195344160840952
1.2713740866664165
0.8088450680598973
0.4146977913521883
0.11062082672381551
-0.12297467142173914
-0.25254537997897397
-0.35653998045305835
-0.4819199813431724
-0.7045957355875222
-0.9752426282393103
-1.2006473762324903
-1.0630704396664266
-0.4033782178800407
0.6105776039358213
1.470659326529965
1.6093988070278733
1.358659237904856
0.8866267743341594
0.41965267316159127
0.053687170004693446
-0.2266888209174563
-0.41530314164219584
-0.541383151413729
-0.6784446229006836
-0.8645347156240081
-1.1053707615287676
-1.372377980946294
-1.5648386485973411
-1.383806893808773
-0.4799809548140489
0.6460551696892997
1.4060521896237528
1.5256349376111646
1.2056512368397108
0.6580086661305387
0.1646021992092057
-0.15160929544859372
-0.3338837767895087
-0.393123
-0.393123
-0.4438228411876858
-0.6068256876276366
-0.815494877544485
-1.0462518818834534
-1.086834072951664
-0.6802610897038031
0.25711079438841755
1.2718965602763053
1.785443044033479
1.699105252796637
1.212403068190511
0.6768493339333499
0.19402145638390028
-0.186782054465003
-0.3728503247219117
-0.46041433372917195
-0.5531789611039049
-0.6723031340078638
-0.894807433042869
-1.1727222964678414
-1.3393174882936212
-1.1954137779811533
-0.49915894306079206
0.5958064768058278
1.5460353875343136
1.8480844484395722
1.678622505003257
1.2945902960655837
0.8031477146496996
0.30072167187437127
-0.06552401263510385
-0.3026299862912894
-0.431331862128528
-0.5669829582473768
-0.7741483036155796
-1.0689671245032601
-1.4098230647520273
-1.6289409410742757
-1.4724435049671094
-0.6381808000995118
0.5774140225391168
1.3356747258873782
1.4661544917759954
1.0947333162519037
0.5569470681062705
-0.01101401548822506
-0.4507490848804053
-0.6397689696859222
-0.6761510000000001
-0.6761510000000001
-0.7278624887337043
-0.863977767139261
-1.0578333456359867
-1.211024934888839
-1.2245038918580091
-0.741953151371916
0.16072311361958924
1.2164934974370842
1.9051931104981794
1.8423259479444796
1.3526060530891026
0.764565217573026
0.28458238728770474
-0.0904329179448011
-0.2764899455934216
-0.3834580427368379
-0.5045374031673124
-0.6317211057501287
-0.8235208990477536
-1.0277279331078897
-1.2597062571862152
-1.1542538175651516
-0.38803224400526937
0.6139004876446633
1.5354070270401068
1.94479230203966
1.7172539406066354
1.2961373693427696
0.7775097365716703
0.26474274001518755
-0.04645255086816666
-0.2476191491418884
-0.34897704376530775
-0.4418609906011184
-0.6485094512097601
-0.8949935079123756
-1.1898972332714006
-1.4334839014829464
-1.2002074011622086
-0.36982581356474054
0.930615246203167
1.522563112216701
1.5703369550685462
1.24797998653318
0.598825182623379
0.0697119929896477
-0.3998759316429984
-0.6598899478977246
-0.7707722585207012
-0.789362
-0.8409638874552853
-0.9710421110765023
-1.1890519497743808
-1.4138009290769677
-1.4421054238638882
-0.8979438881358561
0.12469643418760601
1.3498414356914605
1.854708771525857
1.667511406268808
1.0870377025557978
0.5418392016027134
-0.04872027225428305
-0.3591472402042161
-0.5236889729718213
-0.5618519982473358
-0.6131501433854388
-0.7753284403072265
-1.000535377966889
-1.217630749344561
-1.254186273116074
-0.7061889416508315
0.40583998169777036
1.599970311902199
2.0349899573476384
1.8179325277895055
1.3864028070771128
0.7567088617786005
0.1998741572139514
-0.105956343620809
-0.2738691243438636
-0.3639543378281935
-0.4420531259648765
-0.5922343185395974
-0.8546885689965441
-1.0815937577927224
-1.0301035036702477
-0.5667338368968509
0.521830930394179
1.4057846370455416
1.9724435046291051
1.7101185598719797
1.2332308818938091
0.8278252979765663
0.3118539340885574
-0.09636204626807271
-0.212632324670792
-0.34647182649015673
-0.44178348282794394
-0.6398037300769812
-0.870824178581228
-1.1382078970317546
-1.195862565772942
-0.5884121215755703
0.4499693164333183
1.2995955089838662
1.7331624440297495
1.4908137969668438
1.0568955668435094
0.429037982914125
0.04241366234145921
-0.31793465355556016
-0.5789109057883671
-0.6271748978051296
-0.7184343805174773
-0.8901269959799396
-1.119714589711444
-1.3273666509077882
-1.4789604451141896
-1.0254900040703734
0.11078384206690499
1.092713825191487
1.6571886407824685
1.254577793711603
0.8054544119761253
0.44518735970038903
0.08537233969396937
-0.22242251166535995
-0.35624655820375034
-0.4326908920768331
-0.5091352259499158
-0.5855795598229986
-0.6620238936960979
-0.8190935098353723
-0.9832996476589895
-0.8246545626145417
0.04586249746527837
1.327743349107434
1.800720641852785
1.8652163272591156
1.4527663507109705
1.1208806443958863
0.6123144949150736
0.2061439461906726
-0.040777412991763407
-0.15253853128964362
-0.24525903556236264
-0.37666426298933825
-0.6015446408538488
-0.9873096605545456
-0.9076365293780687
-0.8279633982016265
-0.7343015360752497
0.4490986893735916
1.2292334907974727
1.7953849308424212
1.7211931252776989
1.428243444028788
0.8826593034399156
0.5258665882658569
0.18745878865126084
-0.13112879240645317
-0.2695610543158758
-0.4020887871107085
-0.584751682535183
-0.7722074896741994
-1.1183870164197436
-1.3173144843022788
-1.249664002377432
-0.5315644873094428
0.5293766223267439
1.3764096102522867
1.6416506564557414
1.4190516477596606
0.964227040980397
0.43472171920950164
0.007911309981754822
-0.3558150255024345
-0.556104992781114
-0.6601382156905518
-0.7211625920102072
-0.8643922212459844
-1.1177260006601388
-1.3859354131671038
-1.600606799405702
-1.473445622718954
-0.8014943126223705
0.32582397161659893
1.316859408121178
1.7059100138555774
1.48588629698197
1.0408067185541148
0.6002508963769679
0.07259654881292818
-0.15286995939029052
-0.26749004707816015
-0.2856493012998787
-0.3247153054506376
-0.4475535663580757
-0.7052100090922693
-0.9604604630103167
-1.1538624177642296
-1.0385603174237712
-0.3194685382571387
0.6874724325099102
1.643324556192709
1.8870015029116063
1.6741032177983473
1.180765736135109
0.677447516038481
0.2344503780485898
-0.08175159406998872
-0.22065611302113217
-0.34840002912679446
-0.44690467737194006
-0.5970850741708806
-0.8348920210150214
-1.1136321643094742
-1.341657689042723
-1.3631680963357358
-0.5990023540216923
0.30851125371788746
1.445183667739224
1.7639182031903404
1.5807949885067636
1.2014763228498957
0.7286814773201042
0.2343810641482982
-0.046447965679081216
-0.25691895626860667
-0.32373995448477105
-0.4314366863006314
-0.5637275733006258
-0.8335245887397019
-1.0578088131279795
-1.4181167766578087
-1.4302843425784153
-0.8636792568542924
0.16283366038292704
1.1045295800526371
1.5890429043277727
1.4097709837675034
0.853373768828898
0.3747177127951387
-0.16185927077040024
-0.46458175074526664
-0.6401253256645457
-0.698830324089621
-0.7647635665285629
-0.8706152433753188
-1.1151496599935096
-1.3116691810297565
-1.4544495178803603
-1.3832872581256097
-0.8494349275810149
0.055787533757981345
1.286627956828231
1.7825223500756795
1.7402709565536463
1.2092105222141727
0.6443170558265681
0.18941010878555695
-0.22321406218987178
-0.43213122537915183
-0.5350843962624963
-0.6539916322620865
-0.8243817667057055
-1.0221184452244718
