-0.49181508
-0.6956574348494223
-0.8778606174766225
-1.0152499237941943
-1.1422671345229212
-1.1669573
-1.148377497288531
-0.8042888747745954
-0.11460094807689014
0.9115617381614425
1.449265582401602
1.5542840112325413
1.193066803800859
0.746650751200931
0.17487082464182158
-0.3947694848717756
-0.4494304340465606
-0.3471421806179567
-0.18337335862672424
-0.08908757405538117
-0.13194245662851464
-0.29240800420701313
-0.509333906074014
-0.7167260346741524
-0.9163145741490207
-1.0763051758964048
-1.1632068865616128
-1.2521042635306805
-1.1341501653024426
-0.3968876572768374
0.2328392881575579
1.5695090391862105
2.097595915869224
2.084183249611528
1.6988062415842382
1.2480021399878374
0.684005239218782
0.25951949078722253
0.0015580422
0.0015580422
0.009901380712599175
0.012768855905855718
-0.03367837677963874
-0.2008447541060003
-0.38964283314894205
-0.6046915524965145
-0.8268550084327528
-0.979480133642624
-1.0617355905512484
-1.0408953246383008
-0.7864942310514098
-0.1409301482377407
0.8989612155079575
1.6291443478499823
1.900596865934247
1.7305507997427974
1.2759963135391033
0.7745210873140358
0.14922781575401806
-0.06332384319297264
-0.05441810737730991
0.0015580422
0.0015580422
-0.022078069891891518
-0.15228799434381096
-0.33620553996600366
-0.5688750302362441
-0.7296584604026313
-0.8728707431612341
-0.9948120674382478
-1.0303816644707573
-0.8426231948721589
-0.3126754538658789
0.4562199910400656
1.2014957878961867
1.4681346054320266
1.241247811401158
0.8098103221524877
0.3210970875952882
-0.07044144810097593
-0.23785776236771333
-0.19567642509945674
-0.063359474
-0.063359474
-0.14514755749531405
-0.3573066600334949
-0.5084375404327386
-0.7110859092633143
-0.870219096959742
-0.9514036699442199
-1.02928271064244
-0.9683406223820564
-0.5634910878694879
0.006842330086239968
0.6829120313565473
1.325243101708522
1.275637896264275
0.9841127759938888
0.48102511588678426
0.1144802544739568
-0.12836828483600696
-0.24305288229687677
-0.20007305591727878
-0.14169290226715262
-0.15884435029601962
-0.22902722688252009
-0.37156298743565824
-0.5247818457617315
-0.6733746330324741
-0.7469144861697462
-0.8316110717147479
-0.8525930037737961
-0.7837813893891665
-0.3837949590514814
0.145909686160888
0.8121673032448349
1.1658063790059319
1.149859242053267
1.0015094446349195
0.5223565365810271
0.20178961980181717
-0.04307991395262279
-0.17086070610930842
-0.12957170033654208
-0.07295468855972631
-0.08436605251976421
-0.1773428845087445
-0.3092011034291734
-0.46382266041569653
-0.6332901052827156
-0.746991989143886
-0.815662582008826
-0.8778960772243084
-0.8401141741764542
-0.4671516105088285
-0.03640959142796004
0.614316061346635
0.9560938246388325
1.0651047383389067
0.8299001924438949
0.4447015973341926
0.08593650199766203
-0.1478219227198293
-0.23608314418921492
-0.14817938494727279
-0.063359474
-0.063359474
-0.14370186181975914
-0.26591663879526684
-0.39980346042038467
-0.5171325388651922
-0.6476123978451738
-0.7266525792084126
-0.7583114118604998
-0.7259118720820787
-0.5207119961378348
-0.028107300795019913
0.6515886448001433
1.034061251327685
1.2003224916432098
0.9507998334418029
0.5810906998324659
0.23898304488830036
-0.014408144284904834
-0.14619705782592676
-0.12261158153840704
-0.07427342866769064
-0.063359474
-0.11329592928279422
-0.2324443700866224
-0.39829896441809975
-0.558934307678618
-0.6813920500278388
-0.7799205552682892
-0.8265616800349788
-0.84236967
-0.7423965483896546
-0.3682068167806486
0.2033021974932894
0.8328074395059973
1.1641190792597707
1.1449049749362654
0.9210807152763978
0.601784590216313
0.22916346433108753
0.014268583051780692
-0.056916878538999675
-0.05110355338483841
0.001374654041224166
0.0015580422
-0.06178365863550975
-0.2058653343265259
-0.3758695286098265
-0.5148942847363591
-0.6381925729435663
-0.7546204071569044
-0.7778793204501605
-0.8085511695172847
-0.7425936122873729
-0.39619057568919913
0.18785814070018036
0.8242183088195397
1.0909060394229662
1.0257274423696474
0.763851573921086
0.42112866291835394
0.07572062347235808
-0.11977894413853478
-0.14989452
-0.11173226831785144
-0.04832732348874202
-0.03570263709484883
-0.16323587045400728
-0.26989139746833946
-0.411930131903776
-0.5188116521399235
-0.6469208343339826
-0.7404954356254397
-0.8416894521498022
-0.8667906647014657
-0.671237768932755
-0.1024617983434396
0.4959278899980078
0.8991239698367863
0.9864147642972839
0.7872838663867437
0.4094033561245948
0.0026642097940315357
-0.18468622747489866
-0.28681000120417127
-0.21384540188786863
-0.16051218559021888
-0.12827699
-0.1695133705697077
-0.28561474886753246
-0.42226713232956836
-0.5514634719644875
-0.6775942756399064
-0.7826864010628595
-0.8287403307042966
-0.84236967
-0.6870847818748926
-0.23438678290234177
0.4275100028211751
1.1030876126367954
1.3891992603789503
1.3287752153722967
1.036008353720903
0.6449558837695595
0.2704499210945057
0.02367551645121488
0.0015580422
0.022018898877729502
0.056359885536240106
0.042413965747472804
-0.016644540135057697
-0.12456721064213958
-0.31121437716694356
-0.4753155060358707
-0.5909773760331796
-0.6842531904711879
-0.7500261999749055
-0.7478187200115739
-0.46342177707453375
0.09455990967244882
0.7383969239637895
1.4234386878264953
1.4036905741130952
1.1916123975621986
0.657086151489886
0.38525221429112433
0.1333900557635464
-0.024761378924638686
-0.063359474
-0.014843672089218593
-0.0016331791467759228
-0.025182319421460764
-0.1379400570735839
-0.3167535378139308
-0.46516857924640775
-0.5953137118031229
-0.7175402071578219
-0.804320979913341
-0.8331563670847617
-0.7382824822979244
-0.4214582866150564
0.14381597205923768
0.813750905043438
1.2075754435144481
1.2251827562936957
0.9255774815933504
0.3417497906198243
0.05665080350655653
-0.1797054795148373
-0.22306984388990858
-0.07758545616191917
0.00039430501478867827
-0.007176879439883481
-0.10884657215017843
-0.2435009041256156
-0.4070893188090256
-0.5998131425385361
-0.6851375542923719
-0.7853105273057226
-0.84236967
-0.803059452774717
-0.3644218802435789
0.3353411874296049
1.0189965390068756
1.4450258155906885
1.4141519939468714
1.081949948777904
0.567199385064044
0.15673249720709626
-0.0550346889458502
-0.17944835696929098
-0.13146822652885348
-0.049543703546859885
-0.010061790736382376
-0.06890004582354582
-0.2291564252970081
-0.402665910764463
-0.5932186638658241
-0.7969577241569581
-0.8947075112482853
-1.006334700251914
-1.0474743295100875
-0.752461353383841
0.08668936524704804
0.744282728354815
1.3963879971753095
1.4641046367971988
1.166816390312077
0.7614704321250867
0.3603181548770146
0.03391280417918284
-0.10328635071815914
-0.10289509067532282
-0.04193693419985181
-0.012727669334443184
-0.08584529952020854
-0.23706870985586126
-0.383860994377425
-0.5507232845166796
-0.714706148881161
-0.8412470924497748
-0.9394101848774934
-1.0310810958218972
-0.7857957465148967
-0.18062845500676322
0.6736743407089091
1.3037710143024357
1.4946609
1.2911340608527857
0.8962897428943779
0.3990284499505979
0.02039335391618216
-0.185186637079171
-0.18899539836619367
-0.10236065594928888
-0.02681090276217995
-0.0642439285135913
-0.17831419467748047
-0.34168790437013263
-0.4977879191750659
-0.6859258588305952
-0.8271846425030123
-0.9284276030045879
-0.9671279180566466
-0.7772816838261336
-0.23374574572587525
0.5825115096666561
1.2627666092787757
1.4296922440216573
1.227913641051972
0.7156055796892433
0.15909086853806748
-0.18531136654177538
-0.36157818327341257
-0.2609499681838101
-0.11898434931500895
-0.07383899584374667
-0.0953617033861029
-0.2332431700554255
-0.40716568008140497
-0.5927438527579382
-0.7663243954555979
-0.8747397401771807
-0.9720279532559775
-0.8480237429883372
-0.32935311134044865
0.7500970687429301
1.3367024344630059
1.6341634935506626
1.5485995065530502
1.1530903830491315
0.6389988969193785
0.15904905821364046
-0.09010751913729148
-0.1265663754617573
-0.04107375978315955
-0.001077939452897636
-0.014188181475580494
-0.08577479501915304
-0.27667167186576946
-0.4991674813285861
-0.6502983535131369
-0.8163124752530591
-0.9273941950064782
-0.8558902569661141
-0.46483778701480494
0.4448504279386131
1.260443896453474
1.8216672720587668
1.7976674829028736
1.3918185081649272
0.9557942729062796
0.4402748043092517
0.13223381997162853
0.0020591941461963158
-0.013360689216139306
0.0015580422
0.0015580422
-0.06384958868253895
-0.21466584196555272
-0.4138843334752858
-0.6271290405905589
-0.822628614773213
-0.9619599334501152
-0.9964968798202729
-0.7283673063961396
-0.1169953766417125
0.7024884856029009
1.4401713690626918
1.6030214536100011
1.2783543892447522
0.8432109948493358
0.1876933558516945
-0.005237063544992558
-0.22745384106727773
-0.19379616206016212
-0.06231009803470344
-0.044551953739722636
-0.0836236402214674
-0.21552837743965456
-0.40143957379362816
-0.5690487218788878
-0.7296230322619188
-0.8470395839924922
-0.8903197645919287
-0.7007601565114296
-0.15444208929314074
0.6521134750803332
1.2708528692629506
1.4664768773923564
1.3239638020195155
0.9072801735845509
0.3650968314486578
-0.0509089100582365
-0.26558123953376217
-0.27586535844300314
-0.15008172868804737
-0.0719946496173402
-0.10017529940470012
-0.2545325369725257
-0.4110788760992415
-0.5897941734671962
-0.7597829904196708
-0.857992647744433
-0.9572576217566527
-0.8239382212034273
-0.2684705529936493
0.46728938810302134
1.567782419543858
1.683480266476164
1.459882014210252
1.175485079487907
0.5059499981031409
0.018986304446848568
-0.14058474671620988
-0.1920518732462168
-0.08652943748585071
-0.008041912776967947
-0.03682217547544295
-0.17718143208825252
-0.32677983171195985
-0.5337886827869458
-0.6990867367402472
-0.8275687540987334
-0.9085414394521083
-0.9186085491438635
-0.531953955193179
0.30337373480958607
1.1637105022658285
1.5971766504907905
1.6420465876689778
1.304321823721916
0.7829709755922902
0.26745151520995747
-0.07365238688729694
-0.19302963499414685
-0.14860761140998846
-0.09017898234160354
-0.07853256339025358
-0.15208749891173895
-0.3168509462533339
-0.5124038502367396
-0.6965130527896028
-0.8410409468046114
-0.9544414080217188
-1.0192132978671955
-0.9683657634486875
-0.4350881530210855
0.3933842808988263
1.102845486381474
1.5063548373714375
1.4739955267643914
0.941556434575285
0.4722432548804298
-0.0615966825936453
-0.2778406367891982
-0.28206203952411174
-0.19181343829690956
-0.08246159267541281
-0.06470344838043025
-0.16194307934321905
-0.3703547985205184
-0.49957739858201433
-0.6534836355160463
-0.8415704090376145
-0.9330897709460045
-0.9218478573412145
-0.5998099046007919
0.03405699151260644
0.9397984050774186
1.4879151826405939
1.5465329635192349
1.2001698653143023
0.6642743830781062
0.07668323796275166
-0.20765380290603408
-0.3240662221478502
-0.24114984844571416
-0.15582543669188753
-0.09972756683248676
-0.19339323842323872
-0.3491621835533658
-0.5482488197112335
-0.7318499724787276
-0.9010277519103613
-0.9994242461739162
-1.0803011125086597
-0.9791949043807547
-0.5109689446931855
0.3336566671737445
1.3095924251491846
1.8253953123450113
1.8827065621195431
1.5499494502223736
0.9558422449871236
0.36309660927299
0.032707678712483736
-0.03837822580379581
-0.031666776047099346
-0.01022034612425089
-0.001369413114983951
-0.025628911103261008
-0.20783209258105717
-0.41624955770546535
-0.6350965352645962
-0.831888693662111
-0.9783160373487317
-1.06721343074719
-1.03324571687973
-0.599074458542912
0.3346697985556189
1.0990699099991361
1.5724561533440466
1.5534407022012477
1.233889128074114
0.7768168702743313
0.07126549825181483
-0.30116746365580904
-0.37164978790433445
-0.25605736892553954
-0.20139641975075412
-0.1291130664404795
-0.2378683155462085
-0.3622819761764249
-0.60970015467451
-0.786697534756808
-0.9292555738690922
-1.042375406636041
-1.1135809694828966
-1.089381525264526
-0.6729143581799217
-0.010660729724167872
1.106281685634915
1.4533527326515774
1.4640000166231872
1.1506914820076601
0.6304404669881613
0.047866520101589066
-0.34946517169993907
-0.38138301602399477
-0.26464634323952757
-0.10470954736896389
-0.05138178468325993
-0.1292941117708707
-0.34884495999409987
-0.5267889268006851
-0.7462962535321329
-0.8470834351730321
-0.9529427059566098
-1.0188991994996097
-0.8994171486259742
-0.41872149562884475
0.40311844121689866
1.2459445902524353
1.7429881663574727
1.7132198921451018
1.3345132433743667
0.7655851435003956
0.24234052556372634
-0.0755573521075092
-0.14946392126169228
-0.07176072502099631
-0.006766760756179857
-0.0010805072803789363
-0.09082456220148147
-0.27543630116048406
-0.5068442501292607
-0.6757175622445254
-0.8397563743194381
-0.9464118931190805
-1.0072154494909173
-0.8264295190555391
-0.3017303616676373
0.5250041684002766
1.42732642179903
1.8287376305812097
1.7619302095121199
1.3880302267747515
0.8703364082403946
0.32785707678997333
0.043406801505608106
-0.022465798748005243
0.0015580422
0.0015580422
0.0015580422
-0.08134662442995798
-0.24410969443856123
-0.5417686599099172
-0.7144648884935102
-0.899116309446056
-1.0067349530315166
-1.0371222
-0.8583444841663801
-0.22587180636169424
0.45088286662183985
1.3510253412405981
1.701286780639797
1.5211717813775614
1.1137776525448864
0.5891129883787622
0.08679407466169363
-0.20650860819834413
-0.22346565742834665
-0.1411738585398953
-0.0492325333280654
-0.02116797899913566
-0.10681309588341231
-0.32012413594710554
-0.5212920586098796
-0.7182725125225866
-0.8763967714653575
-0.9740188974478124
-1.0362523762338993
-1.0108310421082447
-0.6425753615428029
0.03919933276709486
0.8479106463225834
1.4879707004936384
1.5235403303849284
1.1961860723611852
0.681537718324883
0.19862360774848198
-0.1701006391648888
-0.2932561162416422
-0.1587266160442264
-0.06097682977436879
-0.019614485898659398
-0.16420252243733496
-0.3175402858244293
-0.5254253813280851
-0.726928142095189
-0.8643909904041651
-0.9847774638171806
-1.036835494612101
-0.9854272115066751
-0.6181308711713019
0.10969881464688513
1.1192041659848957
1.6268520495514203
1.7029859091261559
1.4096831769779472
0.8610131540567632
0.36428878359676375
0.005159238902272059
-0.16002282666088927
-0.10669507136841565
-0.03556773125428937
-0.027023790532344855
-0.10618231108585247
-0.2641927151754819
-0.46814043434674046
-0.6690261048232329
-0.7936441199888509
-0.9370774151955132
-0.9943835487352116
-1.016712795634047
-0.6970667368544292
-0.2718751894663768
0.7908410326484326
1.6915291635748597
1.8337542876216912
1.6470391671987912
1.1940698500017886
0.6707615804749465
0.30903047448794674
0.025340433209247497
-0.03127635213796082
0.01180472512910694
0.044753506755394384
0.02526371018054626
-0.07876235617776298
-0.2761290711868657
-0.49619358416367165
-0.6858620338260993
-0.8438525544053256
-0.9223498234456041
-0.9630452738271894
-0.948755178443899
-0.804629763450429
-0.2738424335622499
0.455163745151947
1.22190405957324
1.6283474616087559
1.4903142146364252
1.0638094505882867
0.46537247257421294
0.08506478244798674
-0.18664388420350556
-0.21767145885872852
-0.10172681994459798
-0.021027000510790837
-0.04544317318640029
-0.1658567590062492
-0.377672495023611
-0.6153935104889764
-0.7961379082872557
-0.9361426465786309
-1.0187733223874753
-1.03610862726
-1.0371222
-0.9277117546329636
-0.5198198687521924
0.19868599882305016
1.0490484668472768
1.511240155507746
1.4086667630066516
0.9865752285770024
0.43899657569038897
-0.05826824064747972
-0.34109963721487835
-0.3351435286122976
-0.19406222492520125
-0.10462967574997034
-0.09474802167531016
-0.23151071189990033
-0.4093671462367935
-0.6684986311607959
-0.8018180399287177
-0.9651950340377518
-1.0420522371385657
-1.0736345437290866
-1.0750759306781696
-0.9150926812301532
-0.24250123207101348
0.5129931558788835
1.541979588662041
1.8465246679030347
1.635839477354474
1.2502236349354023
0.6388933466244366
0.19893932233437994
-0.07106618327407938
-0.13911822
-0.08939225050454833
-0.024826843044460804
-0.02334435036925081
-0.13610208802137394
-0.36587730200731733
-0.6488244071309515
-0.8177134293607728
-1.0131068219529673
-1.1177235677079067
-1.1890637039620362
-1.2226351708721628
-1.0368402834791517
-0.47602755439367045
0.645947268897682
1.4558289306947723
1.8200248644552905
1.5891352587926704
1.1021727561688681
0.5567395655307955
0.0726457006970008
-0.2547313048684233
-0.3391398151881549
-0.252184586865566
-0.12986309342465344
-0.10892224666226122
-0.2773118837818351
-0.5315316298163423
-0.8086608267056858
-1.0454006959826667
-1.2558137228474404
-1.4137844586103145
-1.4788563879704606
-1.4504844594584476
-1.1925754649187723
-0.42387066892888514
0.583129702750562
1.4407562673136536
1.7823914592858654
1.6493317056065864
1.1569691959462618
0.4751359863887846
-0.1385092744658959
-0.3807405075297381
-0.3924224910725611
-0.23493547397454087
-0.0936151176895719
-0.09062360906715873
-0.2503950212664736
-0.4384443165721768
-0.678714606824153
-0.9161985321117134
-1.0791395746913535
-1.178351641707636
-1.213423465666927
-1.1283814496949607
-0.5409175032214842
0.49057037082105814
1.4057622303871844
1.8185684157760573
1.6948446963854373
1.2411142975001819
0.5922796527188038
0.04853454861490142
-0.22984764950203693
-0.19793467348802884
-0.04107935964489276
0.0015580422
0.0015580422
-0.076989081401914
-0.30289472551183677
-0.5365072352147405
-0.7874852120051392
-0.9977265990033097
-1.1088083434008194
-1.145989300874327
-0.9237724904932514
0.06798716423501935
0.9745590658171862
1.6781693070107098
2.015706494631188
1.6825240983830603
1.2226953433047425
0.4845989484705665
0.14687423381167525
-0.1472695252818376
-0.16060146615862833
-0.03458001303521698
0.032079687241390445
-0.014989385655252986
-0.11273917455381302
-0.34176960347414675
-0.555660299784367
-0.7857093815913115
-0.9212685499097946
-1.0350642199794693
-1.0193078087852125
-0.4418802104530635
0.34111089148424645
1.3821263164114752
1.842486101123125
1.757993215993837
1.4065371194126854
0.7563749702008257
0.2609370417065336
-0.1123572864142573
-0.2051080790056105
-0.13719753932282314
-0.043479123241644366
-0.022018760932587075
-0.1130055189204677
-0.2943199082730853
-0.5478359560008865
-0.7561145297624998
-0.8945795170530867
-1.0238110888637668
-1.0632928626358744
-0.788599065180265
-0.10853430428762956
0.8215620005950273
1.5270286312110037
1.6824112892968643
1.4008168861056887
0.8581728395793934
0.30019950442911186
-0.09503009220561474
-0.23893504844467692
-0.14459190003334627
-0.0240155139529101
0.0015580422
-0.04086231432057221
-0.1665872029330268
-0.333532341871824
-0.53667434953903
-0.7144691034771475
-0.8470012776157309
-0.8294449244008448
-0.4633566779478968
0.08325287394326131
1.1237007238215204
1.5409419035442653
1.5852229525676276
1.2082197186834203
0.6197513395588097
0.12418603619152896
-0.179465951426507
-0.26816910781822006
-0.17301014142588378
-0.047273797282015084
-0.003994065883352705
-0.0891421525930503
-0.24238797676263327
-0.4289439719313373
-0.6073034106731754
-0.7066537016203397
-0.8120037978038264
-0.80468109013228
-0.46322980902324923
0.2965208233680814
1.1438845372880482
1.7373675907446082
1.899681713743878
1.6328085278752356
1.1955208245729783
0.6296088378566634
0.258115630709205
0.01342544550545044
0.0050223007359316355
0.07014262565705975
0.12017345234170677
0.01640488521900453
-0.05160947381276194
-0.24453049256615106
-0.4369294864551274
-0.6103634344401155
-0.7167145517081992
-0.7806181797634082
-0.5901094021082385
-0.12516926756493468
0.6249695049340509
1.3426080123775697
1.6102811683972256
1.4284850127642759
0.9689009799461427
0.47990491578291367
0.01692674873120044
-0.2249732806817315
-0.2699675184011951
-0.19530865606292303
-0.13084887677106713
-0.15055049096768297
-0.31053377327451137
-0.5604030612865647
-0.6994435287092408
-0.8505122437268219
-0.9237523790694818
-0.97220471
-0.97220471
-0.9444010515965663
-0.7293969928315582
-0.16532565629043391
0.7452848888296142
1.3452665725485293
1.4700199257272957
1.2279270954104984
0.7107342087688655
0.17909561308182403
-0.1716815349416726
-0.2654985280508559
-0.158367206581236
-0.046500725340202234
-0.01621898706353763
-0.10787772665984441
-0.2875688651349978
-0.4966804240492845
-0.6769312966939532
-0.8099071164016725
-0.9006344835715545
-0.9555717332651157
-0.9693900882515156
-0.924968064667362
-0.6624509307617182
-0.06969625423520248
0.7312201776165481
1.4671127742697294
1.7155716724281025
1.479982727504886
0.9680245318936412
0.5414024484803306
0.04929344488713577
-0.10437734247323383
-0.09623083597333976
-0.02656454876358534
-0.004697480422779436
-0.07146617731969836
-0.22101741523309532
-0.42038868931671897
-0.6843205559255258
-0.8490232567608662
-0.9524411897032016
-0.9863174895359457
-0.9779420747860317
-0.9298028611740567
-0.90728719
-0.7425730394536217
-0.2673326433504961
0.47938177556307343
1.4800412816300965
1.8972076163235498
1.7752817952610354
1.410382519982584
0.8240772146319262
0.4105245474576159
0.045745510165586145
-0.0604477629585803
-0.00612150137250287
0.0015580422
0.0015580422
-0.14049087101919155
-0.3875854160953377
-0.6670599135452691
-0.8794567600211864
-1.0798864471679335
-1.1669573
-1.1667602360234455
-1.1578544385975682
-1.1203652831849338
-1.0832427460342762
-0.8841201513406531
-0.35116703297680335
0.4558419709721832
1.5613073996929079
1.9363839019234046
1.74083103079887
1.188557026084581
0.7328628123311145
0.23500458925308626
-0.059694266187885064
-0.11127691422380087
-0.03622606300685979
0.0015580422
-0.024462502292764345
-0.1447781208372581
-0.3776399275434761
-0.6014160669101496
-0.7906737936821348
-0.9581309832138477
-1.0300446207610063
-1.086738074834728
-1.0371222
-1.0300515388447073
-0.960658171100847
-0.5144274920671557
0.2898857680163362
1.1116440651643433
1.7516208881588173
1.7128232494672888
1.1804728271634513
0.7550715783231382
0.15293038457279862
-0.18173178466171483
-0.31004604
-0.25219613202869634
-0.1577455845762578
-0.1586163224089128
-0.2734183437902517
-0.4800485841470946
-0.7327922488290513
-0.9770826143120027
-1.1750401503526808
-1.3016292875934004
-1.3419759569483192
-1.3163888112819773
-1.2598379830106532
-0.9698526365230413
-0.329822021846791
0.590275578766019
1.7028609922697835
2.0905103338018525
1.9529332835149098
1.5041927902236694
0.951439832224853
0.3734765459026939
0.03789902274869472
-0.10098759034981425
-0.05630288604727707
-0.0030616690601943802
-0.015908644740260477
-0.13713140752896874
-0.33906336659136416
-0.590514380921323
-0.840548548805467
-1.0425527386419158
-1.138852073719309
-1.1645175982909817
-1.1669573
-1.0848209540410996
-0.529398798409037
0.36779792804644085
1.4295717389049676
1.91231273501012
1.9064848191103971
1.5544976809971633
0.9745800580881557
0.4045373003029894
0.023370900168619785
-0.18605578751369278
-0.12568415971348001
-0.010476268298910449
0.0015580422
-0.08588860968973848
-0.2753854095388699
-0.5467001736671762
-0.7646372420507692
-0.9817768871873389
-1.0961113903202924
-1.1628256518190105
-1.1661389220250962
-1.1125114266831642
-0.7557767330198134
0.20726498170775548
1.2092633857953203
1.8448829888882916
1.79736486114095
1.4061848521252107
0.7815034790988813
0.08128524065995532
-0.24534621522833253
-0.33776321939719667
-0.1420871984818671
-0.020635762333458846
-0.0092831831
-0.11148852432525826
-0.2963756625604838
-0.5326307912899709
-0.7893420373064393
-0.9670834614438051
-1.107085530013634
-1.2367749941239945
-1.241842472531997
-0.839862359737027
0.08886916325960753
1.013199232959699
1.9278758723009641
2.0235162030037426
1.7594682482368014
1.1759930052805363
0.4795998433358113
0.04253113069768967
-0.1806121228300758
-0.2025164934687456
-0.07596177925814676
0.0015580422
-0.014144686262915538
-0.1456958881612077
-0.39361876323079054
-0.6437136132151253
-0.8787029683946729
-1.0842825062544996
-1.1914912872469188
-1.2439377809841723
-1.0866942238069317
-0.4191060298051979
0.6753253519972212
1.6373560572056831
2.0692016961552135
1.8764085943861182
1.4025215341566786
0.797872525331785
0.24713486414145758
-0.11907037982889314
-0.22844535633340823
-0.13744074922869054
-0.03493812309813229
-0.02829746507652834
-0.15945423207170087
-0.37646242830613347
-0.6317089673816062
-0.8708671961394142
-1.0822336136967219
-1.2688808516893937
-1.3352581665851644
-1.2233519959712662
-0.6239077877623956
0.4841617514945531
1.479531160420257
2.0114526670542707
1.863103155447747
1.3715094507288652
0.6814505362886633
0.17724402847477322
-0.27362024161148896
-0.3564971046807505
-0.20379824917043704
-0.031461176563013116
0.0015580422
-0.12406308714444822
-0.36402047730737425
-0.6374519791569904
-0.8493711201469858
-1.0545845925123585
-1.1983997425834823
-1.2288667867116565
-0.9048011616812702
-0.08599442960040626
0.9062376917241839
1.7698466647675641
1.8245481970782027
1.4882044601808344
0.8348506997971858
0.20700674117420337
-0.250836783598553
-0.5163778310931275
-0.37710982007092875
-0.14456205773047523
-0.08676481074409507
-0.18544368369904002
-0.39295206198255017
-0.6365093447398029
-0.8530241631400696
-1.066335192524636
-1.2089783398005285
-1.223902321341411
-0.8762411310758988
-0.05143366458495033
1.1812207947783446
1.9707852920006488
2.1392889168310405
1.709122505942041
1.2668742902557848
0.6421777042007664
0.007657231274156462
-0.09490607920830914
-0.055880861183774895
0.013458033763922253
0.06576399613111417
-0.0030865188726676984
-0.2448342139668217
-0.3969415168105448
-0.637595480387104
-0.9229743084712039
-1.0429785830102625
-1.1319615685649085
-0.8236542774935804
-0.02523886358713534
0.9949501699465446
1.83526908366203
2.1123828886231575
1.8279858717539046
1.3003425595717863
0.7235654066138657
0.24058710556601853
-0.04429505925673166
-0.06205320355171613
-0.015130757824839407
0.0015580422
-0.06416259890501953
-0.23528513819304248
-0.49557540443505393
-0.7373521411190885
-0.9758469322065747
-1.146051426861064
-1.238006606924664
-1.1063542194022706
-0.5725863856366507
0.49642632633660677
1.537547680582934
1.8282361160590614
1.7005625409053
1.1797052016136622
0.5685617838156756
0.06553164823703975
-0.2314196190192221
-0.26459608559521897
-0.10469712255916536
-0.006675215661296613
-0.014957155827741925
-0.12890764260456927
-0.3226904871971634
-0.5312755475610309
-0.7284406769300573
-0.8697874344948773
-0.9942544331405047
-1.0449573111833594
-0.8575225467238246
-0.3182465754102908
0.5565052997431238
1.4897411282600266
1.7136854778040125
1.467115011491012
1.0352902916553561
0.2811043540746308
-0.30486476467608764
-0.49760412374489865
-0.44540596463718085
-0.30829639215287935
-0.147535377629739
-0.1933899768296598
-0.3780544058022719
-0.6010494596532563
-0.8367149485092779
-1.088277734109353
-1.2324312473618213
-1.3531048219541164
-1.3617098
-1.1186791326627332
-0.2795595619611524
0.887600114065032
1.8266151042330079
2.1732518294497294
1.8902081954452057
1.397438022968693
0.7313639266209488
0.15102173392736895
-0.09593356698581958
-0.09587763898650233
-0.01005478162727691
0.0015580422
-0.0013194929506180502
-0.14398065097998092
-0.36551524064583024
-0.6319491061508751
-0.8946660976759521
-1.0550395163392492
-1.194666432333913
-1.2799133024362144
-1.1292657234874368
-0.5670255100153572
0.34185325627743596
1.4162002164375989
1.95488335059572
1.8151487958890251
1.2923360970813496
0.6776953185705065
0.14695625223569256
-0.23633228097984885
-0.3360537784114828
-0.25108731081381636
-0.10886217608785054
-0.1278162608308606
-0.2199092972898746
-0.5087146745007614
-0.7373268378821879
-0.9950599319243936
-1.1702023137983137
-1.255662988101189
-1.2903857220426762
-1.2274172912925756
-0.9019700822582013
-0.0027268015675939172
0.9344946881008893
1.862837564337961
1.9148956031519975
1.5634091410266873
0.9199039519994906
0.22180485389764473
-0.2689908110820409
-0.4929674063116317
-0.3913142739434642
-0.18939677894954557
-0.051239478648248585
-0.07096401016818862
-0.24167063821303006
-0.5019608964360246
-0.772309615399478
-1.000080868815987
-1.1727047331002358
-1.2913065769534466
-1.3268761246977891
-0.8066952118329616
0.10829669310772472
1.0950583132297749
1.8243264374281918
2.0191911637223674
1.495544360058985
0.7423616289145929
0.2090840184870486
-0.2973215658432128
-0.4476028933544152
-0.3782095095723135
-0.14545397599434606
-0.06887737064932563
-0.15405248230833057
-0.37279865603100265
-0.6305843510525342
-0.8870710353019993
-1.1212517848904342
-1.2574724118762712
-1.3528960397100476
-1.2824298762558584
-0.8802798833253382
0.12662725439403266
1.3159038211884613
2.2601453332605543
2.3085835164743758
1.9077890024482858
1.2957776134065533
0.6599087175042285
0.07977648106824559
-0.11863235616071759
-0.12827699
-0.005120975934141472
0.0015580422
-0.022545463225868395
-0.20186251785097933
-0.42918273895928566
-0.7395877571608985
-0.9215216381562384
-1.0714487995635027
-1.138396494626571
-1.1535501253583298
-0.7695122427808891
0.04788999728556087
1.4022329295506366
1.935510564622287
2.02159602646238
1.702897262853924
1.1553868053985596
0.5545469010339885
-0.032058465507701306
-0.22943636328578604
-0.2296697657248987
-0.15673827273201715
-0.06561846470675387
-0.1310324931598814
-0.3311261666988017
-0.6229859159449023
-0.8416297294841927
-1.0412328910791615
-1.2679664431972362
-1.3437819905017505
-1.3828712065193394
-0.9926293078344857
0.3162692313345335
0.940965849465899
1.7871390440043444
1.7861658348483405
1.3990407623949759
0.7604028795673534
0.11964142416315093
-0.3874332360572429
-0.5500553858991925
-0.3980710309741299
-0.15721585570321484
-0.035652197561745626
-0.11277079071853552
-0.3200113661655643
-0.5834344003826695
-0.8039332296340557
-0.998533965896791
-1.1337305092204284
-1.206261793360425
-1.089692994651276
-0.43429038662683994
0.4885358540785692
1.6036964667667637
2.1103101872262107
1.9443847997294084
1.4498128247157078
0.7880694269942838
0.1228811267619408
-0.2675542605725343
-0.29895151849485363
-0.17918390802893863
-0.0688137036468062
-0.06327173972782346
-0.18490026461810855
-0.43129102848248135
-0.7149343463630197
-1.0770253053328696
-1.2503364242926283
-1.4094137948837333
-1.4737385668850018
-1.3894541990714417
-0.5485210324218772
0.7436986838461221
1.62868557623885
2.1276768112174587
1.925304017045496
1.4063989031869348
0.7458950303477386
0.2220407707344917
-0.1788624041422661
-0.21605441724763175
-0.07155365686698742
-0.009255855074480332
0.0015580422
-0.1300235229134276
-0.36242840636566864
-0.6442759671663476
-0.9217563824740843
-1.0994978312555357
-1.231206155339881
-1.3144319821543715
-1.25377472391605
-0.898665604104655
0.07904552029434053
1.23129105886326
1.9045036410167842
2.054734744549604
1.7703378098273022
1.1157124689416338
0.4682487275566285
-0.26757450358371804
-0.3564718805527768
-0.3219526353499982
-0.13192110871426077
-0.07799457035906793
-0.13503763798058369
-0.36912225180305197
-0.6510698085233039
-1.0515007341453966
-1.211484057525672
-1.4140305257394332
-1.4629694678854384
-1.4855836522169055
-1.4012789349204118
-1.0457428225624126
0.0652054723434995
1.0251051579699448
2.043940740308952
2.08791467716828
1.6859773331018708
1.03004587564413
0.2910208563589586
-0.18833131690380162
-0.43988106545501726
-0.3045301324621934
-0.03343730858390516
0.02956520604991497
-0.044045076458410916
-0.2300363370518366
-0.5059630161587586
-0.8018715132491486
-1.0569589716814467
-1.2260039035595853
-1.3403289701374546
-1.3702609454768548
-1.0989875021252375
-0.338926548796602
0.7851860011641911
1.9427100448968337
2.316515356012183
2.071202193186148
1.501943576274101
0.8424569453611075
0.23502936747528602
-0.22392647772944788
-0.2743093097656143
-0.16058436792740277
0.0015580422
-0.012088110515398817
-0.10679113745548802
-0.3843234337200026
-0.7315087111394726
-0.9726592574805333
-1.260441374254801
-1.4586073796219499
-1.5652621923029604
-1.5486862720503072
-1.0786561884229198
-0.07252494401431464
1.2645566886726143
2.197353685260911
2.312860483885537
1.9885567333321506
1.3600857609527224
0.6733589935487171
0.10973099833144626
-0.23630775362616974
-0.24311176439020216
-0.10659680444480767
-0.016538154258723764
-0.09663992616196966
-0.30563619953842835
-0.6139717982255463
-0.967707003211179
-1.2438931262703905
-1.4612568836840136
-1.5986678207045932
-1.6569439967943616
-1.5024638589537844
-0.822039854327353
0.3479261152469917
1.4738973030397797
2.326162844104242
2.182569085318878
1.7199633670264942
1.0641047908396915
0.35680561860988946
-0.13199663021816022
-0.2775698729045357
-0.21792362927985887
-0.08138589505802135
-0.042631726836311196
-0.19075314973731786
-0.6122536819014801
-0.947712031899715
-1.3180780960066159
-1.7063138975649375
-1.8549613329684487
-1.9630872480144643
-1.9764192053206475
-1.5329933706325143
-0.46922720542685803
0.8768270414558821
2.01211363580423
2.3231744029919423
1.90269612479231
1.1391331150021955
0.31681859742739354
-0.3450225770991525
-0.7024417274254333
-0.5780280585805083
-0.26931170154670964
-0.08820750668855046
-0.09836190382639118
-0.2965332799178268
-0.62621692192284
-0.9634197107236794
-1.2580451509790185
-1.5012308093179567
-1.6741089512639
-1.7324348671722232
-1.2118543186498059
0.026553985525649138
1.4315276838850837
2.444297199730891
2.6696201737123935
2.2429981149431684
1.5057601125234312
0.6977004985756589
0.03494026984453305
-0.32302954
-0.31763697367554145
-0.05734671368844463
0.08211224689205159
0.07197905986966568
-0.09876267849358339
-0.4209426875587784
-0.7764255440484082
-1.088157945911357
-1.3112158582986355
-1.455416753207369
-1.5040579354517434
-1.192997168264019
-0.07568811287125898
1.295462180876683
2.3418260022135553
2.730996551622007
2.4744735483711318
1.773928357663874
0.8401120810630669
0.3143018682745906
-0.09615451010280218
-0.1048482061933411
-0.008124049641674305
0.05766398982610667
0.017637184477003645
-0.16456599547715026
-0.55029956510147
-0.9306715806368476
-1.1878310484267434
-1.5047604060547664
-1.6313419267619873
-1.7107580274023144
-1.6828513471613418
-1.2104601112402489
-0.04557901805293507
1.4040586485551396
2.288897999278414
2.4708753712452216
2.029512410261557
1.310965539626017
0.5327934004376078
-0.015235946110052745
-0.3429089771001065
-0.2646899690546809
-0.04860027532232475
0.012383686367275323
-0.036284827596412494
-0.2624273217827925
-0.5906482541380426
-0.9299793170197936
-1.2282646013014724
-1.4449651849437952
-1.5876897228467468
-1.6150433471015813
-1.6213799
-1.4826545656629455
-0.640920078974956
0.6660566529238588
1.7962263184617668
2.5283321281685676
2.3256866071260083
1.580329354377875
0.6701844999026801
-0.1821021263876194
-0.5615402978029156
-0.572398902867209
-0.2657642791303459
0.003284556400056966
0.021042700530747534
-0.12383334175716695
-0.39422283866181174
-0.8745387434448944
-1.1457079372593564
-1.4825392653353329
-1.6300197073384572
-1.7368080314373449
-1.7498225611886167
-1.5231048380207168
-0.9009298834827834
0.6948327380868627
1.9947195529576638
2.6627805434829526
2.5834232469586724
2.0094958455341705
1.2021975844992947
0.3816426109463822
-0.17829887302007008
-0.3038385309677824
-0.19283355320802809
0.021775364747175008
0.02861460079550668
-0.1400840261878185
-0.38854290903698685
-0.9291147038927733
-1.2366909643991286
-1.612885831844318
-1.8161407668210265
-1.9542493003796997
-2.0033055735821343
-1.8848290712209268
-1.051628228132218
0.4067890982967126
1.9447203357067697
2.8668686839943294
2.8368326445967464
2.303987483688432
1.5331000397498387
0.7059300238748834
0.04641245225444027
-0.26154057338613307
-0.2361740373961724
-0.07279711368496605
0.0015580422
-0.11457247904988759
-0.41346597907573723
-0.8441119216453419
-1.2534656413165437
-1.618527267532887
-1.9213166917729463
-2.092802613389742
-2.14072
-2.0002084146744856
-1.2243080885157078
0.2719597370110789
1.9270745651156695
2.806966566434817
2.8546298358213233
2.32386167554712
1.5686572851038307
0.7095568903807975
-0.1844630220624971
-0.4729231606332548
-0.35881803573967974
-0.14438138979143134
-0.016716193491915853
-0.11145989510509637
-0.3714434978097514
-0.7221859610667773
-1.1368980533512454
-1.4555573686258925
-1.6599563031308322
-1.7782592269618063
-1.79182492736222
-1.4677174359766532
-0.34860895620412435
1.412564984407288
2.5009964909773776
2.8368047446149265
2.2865473565453307
1.6281889806736274
0.6907322762547393
-0.3898912454145344
-0.6279250828968939
-0.5862069665970571
-0.23919934317572406
-0.05017922250251655
-0.06946513773861038
-0.3252801332308688
-0.6680190869151081
-1.0924458948831994
-1.3893215265291117
-1.744790894091556
-1.9541990028362004
-1.9933083426280214
-1.663994624551188
-0.18182319706222913
1.1611532852001967
2.706258611966177
3.1195750420873813
2.66320241312867
1.964636792336319
0.9475920727611247
0.09135618010382407
-0.3079788636235739
-0.3172314479273926
-0.10379343506190825
0.09608462408670285
0.0040882089955826435
-0.1280946060038374
-0.5503103200901807
-0.844300604035122
-1.2453482006401049
-1.5151670765970586
-1.7884011489500702
-1.780642094547792
-1.2840894126917353
0.009918780074086642
1.456689103604521
2.632758676677973
2.806549198825255
2.408393785746874
1.504284822421668
0.5603854215911492
-0.057651760242278416
-0.4576099637092346
-0.34471404963484237
-0.13021900683621598
0.008361056698474008
-0.013218667525128257
-0.1830514181632412
-0.5312781393408337
-0.9843451991471588
-1.2274007056487866
-1.413162209441487
-1.5521034819480597
-1.5311086570199826
-0.686716916745194
0.6543107292287507
2.2691910911840347
2.767968970854543
2.4514491408693355
1.7217541582072584
0.9306901321512908
-0.09050755185120103
-0.38705576818749077
-0.4355366746327808
-0.18734479215117672
0.027925289194711614
0.056450234687854046
-0.061212336089489644
-0.33668203108165473
-0.605080649895272
-0.8705990747160446
-1.104760353631158
-1.2705802456126443
-1.2885760936559416
-0.8263843721366421
0.7390741588811925
2.1956330884645494
2.491417599256619
2.268974179882164
1.634250187465912
0.7332674019032022
-0.10353089537389298
-0.4611468754987016
-0.5073074684749448
-0.23501325641902232
-0.037339841925963034
-0.0051291603000845
-0.14684455750103734
-0.44905297206942296
-0.7907397022017015
-1.0938544854799352
-1.3398050227702456
-1.4963887606194932
-1.4608191307282008
-0.6389420203947735
0.5897908959009728
1.766488092298239
2.66587022771322
2.561106989109866
2.037413328837504
1.2891232099053218
0.5286946018856923
-0.07566891141541632
-0.2387458519769812
-0.14206347936573613
-0.01606889217381238
-0.021010280577475685
-0.2701803815146122
-0.5857488489518234
-1.037248341319362
-1.4864021325720234
-1.676215484090991
-1.8751394588781676
-1.9072678175163005
-1.4938279387898186
-0.39077795622533423
1.0173014358764667
2.332051092997103
2.7280181665233245
2.473107917694465
1.8200219992762399
0.9348421817084933
0.18921790777648262
-0.23788585943445503
-0.267898578660174
-0.09499053681470158
0.008097769566363301
-0.013563603250704413
-0.2071105239967643
-0.6150581159014078
-0.9679029435018147
-1.2832357160031533
-1.5721809467071046
-1.7595038447024218
-1.8249842155112639
-1.637248836971533
-0.8282650384091397
0.45001814931391904
1.9204950599261692
2.5152315806282095
2.356693143732718
1.6120287054830924
0.7749937208317912
0.0516107124042689
-0.3687448879422434
-0.3533083331289462
-0.11233239283056856
0.04227863513742547
0.018660715637831823
-0.14714467746645113
-0.512957932509362
-0.8974349386195358
-1.2226032900300456
-1.5233459910160243
-1.7198670242183827
-1.7836600665839637
-1.4717208699691275
-0.5380748189281659
0.8901978055675205
2.1739271145982486
2.5934377358202716
2.329782904487455
1.5920076861286263
0.7897742268986094
0.14899765775532492
-0.2963344633771866
-0.30239806949702014
-0.10918321550499471
-0.012060899263117469
-0.06794711654731256
-0.27203552005573106
-0.6197970829535497
-0.9930914192889955
-1.3100018331862362
-1.6609761239496748
-1.7587259028262958
-1.7877106088759687
-1.4590856897142328
-0.3468336063241882
0.8263771251158362
2.0689922168644954
2.86209691453043
2.594801109813606
1.7943009792008315
1.067016486154554
0.17114387423354893
-0.18154670331668338
-0.2751076533006441
-0.14689806698938299
0.0480089062431624
0.004085623288770664
-0.20160659613443463
-0.5330592375701335
-0.9660931963415913
-1.2464934071664349
-1.542413867142394
-1.6410702197730465
-1.7231983148119712
-1.6607286682351516
-1.0351392337685277
0.04766823017443844
1.9226332263769697
2.6905530307377505
2.691965941877231
2.1072909593484095
1.4051243677645378
0.5919280190988605
0.12340554868419651
-0.18961042413316753
-0.17784257328598335
-0.04059982580525597
0.03873773087252742
-0.03586145839477033
-0.11046064766210031
