-0.45721051
-0.36397633152538095
-0.33808848209838094
-0.4854902947701777
-0.672060616323906
-0.9289702285920877
-1.0699671247860956
-1.2367700833886563
-1.3253241909645916
-1.414221605480514
-1.5002621758794124
-1.4802776552465562
-1.1744299168682033
-0.36324981390396793
0.49777754230793547
0.8874595292105271
0.7905747452963255
0.38562509767404046
-0.03621811754681592
-0.41747703077818854
-0.4736266053505527
-0.4320394787704166
-0.3994014834106899
-0.48528359953507
-0.6308438806813456
-0.9311769984822486
-1.1112953219582271
-1.3043094072842143
-1.4440875873447907
-1.5334106345726275
-1.6194769755779872
-1.697848732164963
-1.6071053842173146
-1.0929717220515012
-0.24745160768952223
0.5861594565817714
0.9728039358360276
0.7166813682607576
0.10962963896506264
-0.1919854484754312
-0.44969037284210095
-0.4861097819256626
-0.4112648548428015
-0.3577317160755436
-0.4474361483466586
-0.6801845332436411
-0.8797659053579503
-1.0706738578697188
-1.2311036707821978
-1.3379949535037534
-1.3861390567736418
-1.4231280875281622
-1.4517055140840738
-1.3857572266570746
-0.8753984190903302
0.2198744999928456
0.8415381805771291
1.3103087265229363
1.0011441753123747
0.5614457272741393
0.05762809538341121
-0.16022556796566953
-0.25645785968969126
-0.1474185327383022
-0.11344554948796697
-0.22456576454392577
-0.4678019076926273
-0.6966537311877133
-0.9587207579494641
-1.1917674615596863
-1.0218499790814324
-0.8519324966031785
-0.6820150141249223
-0.5120975316466684
-0.3421800491684145
-0.1722625666901607
0.6009349352501904
1.4597320207212574
1.3871584595412731
0.990078477633131
0.4779807933698472
0.1819356654953046
-0.0657797074659964
-0.10478293138486498
-0.045591670929662084
-0.06466528196493415
-0.21414780769115588
-0.48364156400646363
-0.7381674949030579
-1.0233842436482652
-1.2283019639317152
-1.3902204504999258
-1.5347984592722432
-1.6007339579131243
-1.3573250167042374
-0.640721211635925
0.44241698165759136
1.2129397872002616
1.356642433062944
1.0008000987621244
0.4886173995192968
0.10401574600130234
-0.14664997677108096
-0.13692925484671156
-0.05175230336977028
-0.026758251588560412
-0.19709626597669316
-0.47737303349815596
-0.7537940159328871
-0.959049718466368
-1.1940422997255078
-1.389743197345
-1.460042416082226
-1.5499622496978347
-1.4121029545307797
-0.63413526904424
0.49478915254900335
1.5237311453668985
1.6547845901759939
1.2369155116629549
0.6789193119249002
0.1620122321157519
-0.001224388503449047
0.026068163220952748
0.09959162999903376
0.11069276700843508
-0.05002416002641698
-0.2942491805183611
-0.6008810218166865
-0.8192181865965025
-1.0111821048462701
-1.1400484621630986
-1.3006676775375252
-1.205569926287614
-0.5287766838436071
0.4754137986081071
1.523067769143566
1.7830177932750915
1.3251442571810947
0.7990161293463643
0.22834565874778792
-0.044542089202289144
-0.11277347202139884
0.009752286604080534
0.050098289930896656
-0.05797944499252788
-0.2901438808338528
-0.5599550770420146
-0.8129432869459595
-1.0315432157659021
-1.2312364242437854
-1.2826656583304108
-0.9745434715959442
-0.026900555283165373
1.0750938220422697
1.5842884990366892
1.4859826994341656
0.9922026900115023
0.39468013593063417
-0.0677921551000597
-0.20519954713451177
-0.1696360979315531
-0.0990133119999999
-0.20573814226583328
-0.46482419223412824
-0.6720602240334747
-0.9751148104184925
-1.2343783469277396
-1.392269878107887
-1.387006400977088
-0.8831453010951991
0.07785323295579705
1.109110995948254
1.4639402989399184
1.1107715976522399
0.4444474636436101
-0.09282407295013606
-0.3883423418119583
-0.42522916192992183
-0.23368965995814012
-0.1849478680720542
-0.33206305593358476
-0.535903723311067
-0.8114687562116399
-1.052266212512669
-1.2658962242397915
-1.4115128128060979
-1.049065048812059
0.029501346381016785
1.03076324567565
1.417902019781449
1.1105852716659834
0.5593788517822954
-0.07768229713094998
-0.42900409560569014
-0.4973837071001991
-0.37482360004945137
-0.3250570743036205
-0.44077734894119164
-0.6945359890913358
-0.941218182001446
-1.1641100711196986
-1.3700395110572101
-1.4191390018251067
-1.0099796164492156
-0.07453950935465847
0.9342206831090805
1.4008002668309132
1.157058365016681
0.5534952861532485
0.036457009705441495
-0.32761640767719413
-0.4127347570327399
-0.34204691071020105
-0.31905646665211257
-0.437260280035787
-0.6394731025487336
-0.8836313667339086
-1.0832530029885832
-1.2636849606845808
-1.4308971951659226
-1.2772620263933774
-0.5398395938888428
0.5788916436516527
0.6823354780207938
0.3091691123258469
-0.0639972533690999
-0.40583718895575355
-0.4620210199068591
-0.5182048508579663
-0.5743886818090749
-0.6305725127601804
-0.6867563437112891
-0.7429401746623963
-0.8022307695496815
-0.9428599712347703
-1.1544517173694064
-1.2606699519961524
-1.245253508164467
-0.6478017917720793
0.02228140902628073
1.2571211213449562
1.4719075809417623
1.039287121264148
0.4651866538784485
-0.025227118909018853
-0.30671777411071743
-0.3477816696027112
-0.22320614771221273
-0.18617275049100795
-0.3348888235895295
-0.5272227644747598
-0.8108383263409337
-0.9473010837247946
-1.1293615570152093
-1.2682181983294036
-0.9878414847308946
-0.07640819839685135
0.7598626728609602
1.6439394918896246
1.632504188631339
1.0255720883353567
0.5186053210219194
0.02390703783472014
-0.1599246391194283
-0.17049548955409122
-0.11684223173177212
-0.15824081889585995
-0.30226119942222696
-0.529699128395314
-0.7435784388183927
-0.9862707371986823
-1.095130652803948
-1.2061420631871616
-1.1199941729400322
-0.5487524210252749
0.41565905749081516
1.3897531594406027
1.6783827297428633
1.275122941149126
0.7101736928304805
0.2247202369968258
-0.06634959710268865
-0.16148026094584456
-0.04776129068123916
-0.06216053683769384
-0.19683529821521017
-0.4119648940777296
-0.6530836653561212
-0.8862075425535376
-1.0387663862711203
-1.1550379904598072
-1.2354674172880213
-1.2263741470294374
-0.9862397799745829
-0.12197566308384045
0.989343104036237
1.628033401645678
1.6289645874709227
1.1414373361726742
0.4927870739961775
0.08798664098005639
-0.018423107471689022
-0.03853092330438985
0.02807589955779219
-0.05347486397397657
-0.2947314064514009
-0.5043477243551377
-0.7597664919964812
-0.8877714273377608
-1.0934668165839052
-1.1604314583744821
-1.2204332523046597
-1.2901075787340668
-1.2795616450009313
-0.9506711611386764
0.10190514645626864
1.2850507940838984
1.8564041020642774
1.6727217330366202
1.2329932266488584
0.6408738187402448
0.22771094110678244
0.01595846643204133
-0.03204717554405677
0.000656906241726006
-0.08311602570372492
-0.25336306623195676
-0.5364013162081781
-0.7363114467601698
-0.9460481708085725
-1.1039155147589377
-1.2125175401631043
-1.2716256753611799
-1.3246216751080289
-1.3608483163773908
-1.292744821989177
-0.8925538042284457
0.03348156102159794
1.1054344945810777
1.7720245995765067
1.587544590450432
1.026203905369575
0.48772473255787124
0.07604435451538269
-0.11381842175096846
-0.12614112070959255
-0.080662594
-0.18365670893374864
-0.40241757554580126
-0.6727796201129
-0.929930195801087
-1.1258636724022655
-1.2886986165681262
-1.3734466239819678
-1.4329302363544751
-1.4848574073383065
-1.5000380452170237
-1.247035065026889
-0.3728408730762819
0.7817963275870619
1.7169682382200733
1.7714964363591803
1.2895407312810434
0.5756404487695401
0.0371008991480396
-0.17759460706067498
-0.17596240464007912
-0.0739479785290804
-0.04905843781752005
-0.22659268623946835
-0.49377501735618057
-0.7969650710904552
-1.0257224776831586
-1.1749974435585164
-1.3598331544424345
-1.5131884248908958
-1.5552751125121878
-1.3032492993257783
-0.25196850958541606
1.1403248687450809
1.9040831175538395
1.8866932336946631
1.327195909082048
0.5427318797909304
0.05843271614768275
-0.19320786288347278
-0.1642490718182797
-0.04459891618450677
0.0029583555212029516
-0.13914639463846828
-0.4190683638779088
-0.6996924864246835
-0.9726202791846102
-1.1825081199287981
-1.3658595553379012
-1.419897588578856
-0.8639910661914048
0.2541245095004811
1.3613313224743155
2.0920077681049936
1.892249679338419
1.2721760879915094
0.5149115949473351
0.008860614703603165
-0.18661121890587126
-0.09899510243908559
0.029932527173397047
-0.0019019436532911882
-0.21384859852729363
-0.4763860026134882
-0.7599483010221926
-1.0148227146348088
-1.21107316469978
-1.3683446474524348
-1.0439889235699442
-0.029340060000846546
1.3301213515643073
2.22666405524942
2.1056254776861465
1.4500744795309175
0.6444311340675742
0.07875520001434638
-0.11198375368950692
-0.0031258501747209316
0.17301132191830867
0.18428250259748222
0.05708764088350747
-0.18168232480203592
-0.47075596867480174
-0.7493058373095115
-0.9361643071243542
-0.593913857236825
0.2969810123160796
1.5020412255958486
2.3043965161355957
2.135124198245219
1.4874453149961244
0.6175371874753451
0.018341672961362444
-0.12279278059368641
0.03904391029769333
0.139253454963885
0.10901035372282097
-0.08035324541475938
-0.3680299532871978
-0.6344572511822387
-0.8617742549046625
-0.9244872563655332
-0.4462844226675181
0.7926270996826652
2.0757742159623995
2.246124770864016
1.8457578486141237
1.1528804813301736
0.5177835718886874
0.13600904508976097
0.09220702270399928
0.1265647154693775
0.14600445224678246
-0.023816446076185993
-0.3024220618150789
-0.6032270722021713
-0.8707446377312864
-1.0025723333631384
-0.6572849360713451
0.23594664021315034
1.2692092987050945
1.8759692893653437
1.6904186254197953
1.1373498614417885
0.4890594212848257
0.05228432279352152
-0.09612660489455471
-0.05453910780493475
-0.023459376870668548
-0.15019953797330138
-0.385868865933381
-0.6366976302244618
-0.8781215569220597
-1.1200112644716427
-1.168518998321657
-0.700074370823297
0.28348711044430996
1.2616134659075886
1.6796869828815295
1.4341884875291253
0.8284920506791204
0.2007349709841858
-0.16471327648760536
-0.1541455056474629
-0.02714448847735032
-0.03524870200218487
-0.20499814273169834
-0.4346462395534658
-0.7120876459709383
-0.8862360858057431
-1.0742928070565834
-1.0076081039397333
-0.3883027122832151
0.5797604685953672
1.7675146458007367
1.8378158811060556
1.3642807980284197
0.8302993149635816
0.20530103549024226
-0.044197102642822006
-0.05190423301576238
0.059995229972896594
0.04546695006683246
-0.1538225422087867
-0.4202498304344483
-0.6591221662883453
-0.8666028195611355
-1.0095858515215348
-1.1265126415288498
-0.6648854504993598
0.23908880838787996
1.3894541037363344
2.0505784156455342
1.8624990596987798
1.287578135810203
0.7605427853321423
0.37795764470685733
0.15633835161766407
0.13976645
0.12744248593603072
0.02424022336606642
-0.21663794997734043
-0.4581850464765876
-0.7196596140089694
-0.9111191712485257
-1.0577239721499778
-1.173903277709046
-1.0336638723989848
-0.3988851436324374
0.7524808909124979
1.6453242423660561
1.8631137900265993
1.4597984803005806
0.9661296113644897
0.472894498193743
0.13993172539566923
0.084659189
0.08184159737523372
0.05007381162552105
-0.10913274443371072
-0.37696690362132834
-0.6448103122114919
-0.8876257542507832
-1.0807621031776797
-1.205717243783944
-1.3118853145597071
-1.335907715753108
-0.9897811832721737
-0.18698040617238004
1.112916903741092
1.8807570862993899
1.7907077064961512
1.401157529359952
0.883319338994182
0.36780851893181965
0.13197066677412225
0.07640956195744102
0.07454881763397654
-0.026177212047958753
-0.20452019625841306
-0.446866674830374
-0.7127317954954904
-0.9306047145724132
-1.1155940333657484
-1.241357242603993
-1.3753998871910886
-1.4529742423907803
-1.3584797789447995
-0.6222262548095429
0.8289734473131365
1.6761915770060034
2.0278089194639337
1.6533044214719297
1.16808829627209
0.525387599511113
0.1997690387435498
0.032526958458620504
0.05527075218136798
0.044808975306998705
-0.05637763227235547
-0.3877752089110584
-0.6209332107283184
-0.9272373101343498
-1.1152343699311467
-1.2628504490797465
-1.3910743111783328
-1.4990959815791058
-1.591201479760853
-1.557936731964341
-1.0769929697456846
0.01987513833679555
1.291822564683998
1.969560914024166
1.8461420542093703
1.3537691387528883
0.8210230097636971
0.331016700170206
0.05565351137195375
0.012074914433071142
0.019018118751204918
-0.09257470049593156
-0.32459375062301843
-0.6174847075157055
-0.895043614342848
-1.124068380145933
-1.3337075898163235
-1.5069060154522647
-1.6122749174029076
-1.6640772393600582
-1.7237890203580883
-1.7380172525831281
-1.3238970007232826
-0.44143781484637545
1.1659574058125686
2.048916507288439
2.0582923786276024
1.52479678208407
0.8727576300263155
0.33011298712295156
0.06981058814368069
0.014938955768094432
0.07878985342379971
0.020344262306912747
-0.2102278438851991
-0.5010056865828928
-0.8285162444153656
-1.1590812669911874
-1.3992153145677797
-1.5603355865960724
-1.7143367211801688
-1.7888739669470342
-1.8407087030095315
-1.8005177130778078
-1.158870302724583
0.11100666505081302
1.2092780003081973
2.0796071450684006
1.8600663736590803
1.233034023474028
0.5662997076150393
0.04126640256702853
-0.12686587273012165
-0.13547408250955462
-0.051004738291472576
-0.12433792700515052
-0.3432384069545537
-0.6579677966616445
-0.9884708501559479
-1.2873717915410712
-1.5357146473494796
-1.7533245217191826
-1.9034214975851793
-1.811595620429775
-1.062817505837215
0.3361913888440924
1.606128961785766
2.1479694952304818
1.7406731523581316
1.0046258980836051
0.22445036447202435
-0.23892962843916235
-0.4102945382245302
-0.28232243026621356
-0.1581047266097915
-0.22176201547461327
-0.47007993807056564
-0.8000098639421769
-1.1568951757518273
-1.4468050269588493
-1.732137952480554
-1.9703703595568265
-1.8827870965195939
-0.906412068703097
0.6212197560235995
2.063496236952836
2.423680778772723
2.032488145948581
1.1237140610082847
0.3071713978904882
-0.20108823885604282
-0.25728079994350983
-0.044671345644814786
0.07257557172434186
-0.021594315503528763
-0.27566568182915574
-0.6066543984189132
-0.9184322356580965
-1.226818736676569
-1.49291184190252
-1.3188725620245307
-0.2850980370169076
1.2939483319579173
2.4607735708507112
2.6554667109026933
2.0812556430915947
1.288955435273257
0.4942172619663455
0.11268341220844652
0.06596674536239719
0.17279508130126886
0.15775670475101522
0.0027554366873412638
-0.23634598276495544
-0.6992370786381443
-1.0168689769868997
-1.2831192316267381
-1.4167959148343323
-0.6932243327064748
0.6304848106213642
2.1363178979212645
2.4651520449243463
1.9813778238956303
1.2689620597450493
0.57835347166869
0.06389207647241081
-0.10346106656026005
-0.005166592003193922
0.00648154308537496
-0.1469047885016413
-0.4068760073764651
-0.7396921628353728
-1.0478903842116567
-1.3150151010439706
-1.4449288478287492
-0.9077916183514061
0.23767898908342527
1.4633234236087418
2.0425904363874747
1.700049895055542
0.9349189040985859
0.156915184797629
-0.28917797301789316
-0.34601134980024184
-0.19428127399592748
-0.08815873764126927
-0.24976057361426493
-0.4764169211418799
-0.7668645558520177
-1.091930278189951
-1.3565136274871332
-1.3413207943355934
-0.6782223052896973
1.0138462408812048
2.0070580251969092
1.9713825172244648
1.3274409928706374
0.631754884310725
-0.0527457389123675
-0.3698857822257777
-0.29268021404861766
-0.12011609226038601
-0.13156133645489862
-0.3319237047649708
-0.6046423872528537
-0.9775423463298046
-1.2474948739025322
-1.3691441460732103
-0.7373272802331208
0.6667303846479592
1.6329718501010528
2.3399364306615404
2.0746072994520994
1.2824467132454263
0.7140684725790492
0.30216050760192287
0.1296911202063834
0.13433530291060214
0.16568068964104324
0.08277739959905595
-0.15531696983650017
-0.5479789903616568
-0.8018043278685064
-0.9876739900922997
-0.562860689672912
0.4154723912208468
1.567453017985045
2.203218162757655
1.9869973639534093
1.4456241083527446
0.7798944632836537
0.31945663850419453
0.084659189
0.09773902541665663
0.12097082008594587
0.007673349309203242
-0.21116584924680912
-0.5454662814876889
-0.8064958849356894
-1.0163248319558729
-1.0450908969244013
-0.4826184405350099
0.5798544491048532
1.5422462234394432
2.0175081879761994
1.6199180887112257
0.8599104117280862
0.4988774122591674
0.10109100183742538
0.06319984004751125
0.08814537115329674
0.06674195182122594
-0.14189824068100396
-0.3329461076219072
-0.5421242529524787
-0.8196436472528759
-0.9981350515058703
-0.9241126718771792
-0.20008582292460897
0.8646186647210974
1.7338168485753083
1.8019133843222774
1.3187137451377762
0.7104636834421534
0.2760455764200447
-0.09277578907961781
-0.08938992915799723
-0.036814376977715335
-0.08855811891408244
-0.2993953677276974
-0.5357855149762321
-0.8539498760723176
-1.017484441762421
-1.204219475163403
-0.9236406011765186
0.10390248193159846
1.0867108926292928
1.8643683300228697
1.70964088230971
1.11734725230265
0.6104049631482917
0.1358055852089914
-0.0916840459999999
-0.09123692190336695
-0.030628809023942064
-0.11400755330672739
-0.36190480443577644
-0.6013440735438413
-0.8312613004259957
-1.0403247651258474
-1.205108335128203
-1.1990974633675517
-0.5496345263578354
0.4366195385362154
1.6581823059583973
2.262764111912236
2.0670613621867657
1.5717664010201131
1.1137419089344418
0.6506371038623096
0.30511755434283705
0.14858125211467976
0.09915161223279377
-0.0059588608242432325
-0.2427683158471971
-0.5074500037520706
-0.7496896839927076
-1.0401219513360345
-1.205783564671283
-1.3119899495024965
-1.3763385049614114
-1.3994034015103058
-1.3861896823999234
-0.5112207852148684
0.5539369905152322
1.8258667474253032
2.3883391876990636
2.2517275373725067
1.9019597421833778
1.4720772389673447
1.0298800277003186
0.6083466018549174
0.355366445396965
0.281540032102232
0.1905648522586188
-0.05829620124054829
-0.3789505978720064
-0.5737751917749709
-0.8500733192780555
-1.0141734450759199
-1.191171150236205
-1.3089432694715604
-1.4219805869551925
-1.53457908132737
-1.6336136653915936
-1.4046658224479818
-0.3794336956340285
1.0747802348406958
2.0942659781193584
2.353481116965149
2.05306233573671
1.624989179663428
1.0983804860276
0.5665219605778158
0.22898237309206426
0.09025116235506536
0.07222340924757539
-0.07697587505960148
-0.3452371609041225
-0.6460599565176761
-0.908166809548932
-1.1944512830606262
-1.350705851986882
-1.5145896557576999
-1.6741992875311802
-1.7310494455592982
-1.80779763553367
-1.8755253270558159
-1.6459821590680515
-0.7584634607354903
0.6165519189313441
2.0416144823118563
2.273185511991128
1.8918489792183926
1.4014263710012294
0.8429940926466598
0.37187762821268566
0.10512355874762329
0.04584732540623629
-0.006852936805728814
-0.17241515865046447
-0.4155839618525078
-0.757485841691113
-1.0636559376870496
-1.3172355523225214
-1.561315998630922
-1.7656986118448768
-1.909835697382411
-1.985659430997558
-2.0221788496745874
-1.8142711166871253
-0.8619935292096352
0.6153093518758677
1.9836754713902836
2.3468173568377297
1.9107816566342122
1.2364126640323374
0.522468827294347
0.08615247417405292
-0.11429658673634976
-0.10267787457773554
-0.0658126805748537
-0.19560214553861896
-0.48086676670847717
-0.7997148297152167
-1.1403504561002193
-1.474557316231105
-1.7380370385890744
-1.9472839280869978
-2.0486310183361276
-2.064524
-1.2925834175198934
0.19965703215623543
1.8288258398560728
2.5085270049989874
2.2878356975942484
1.6283481179060146
0.7716659076013171
0.1907572243136738
-0.10494743079198901
-0.15617300511846668
-0.05325469609790547
-0.09764148368935185
-0.33646736919244963
-0.704916524347606
-1.0887685423995623
-1.45919472800186
-1.756331204176717
-1.9818631
-1.9818631
-1.858820148548795
-1.048833487913165
0.7660963953559737
2.447704131873144
2.694321547460478
2.1072391380794424
1.2681656448177756
0.486089592845962
-0.1231857814496823
-0.30582034864634017
-0.2023925592959275
-0.1305095330433967
-0.28796616838825473
-0.5927961933845299
-1.011610620311601
-1.4221146821617103
-1.7812297816064895
-2.0094167
-2.0094167
-1.9469512371425661
-1.1537663563531901
0.6277343260913852
2.2577664272061813
2.3413697974472276
1.3840597471897762
0.6466314680677905
0.17663705330277188
-0.16602093908912205
-0.2344784577151557
-0.14981973890419825
-0.041247535824277794
-0.028016243656388
-0.17807598900608218
-0.3734005500204455
-0.541706830420614
-0.7913314227009735
-0.9987807632593823
-1.0318087435722114
-0.5128555397777272
0.3010194267502375
1.2197107485045469
1.533985508975617
1.2627986098893533
0.6844796793966699
0.1360361589090392
-0.21173825260582738
-0.3144137523578819
-0.16375422039881607
-0.043115525118929326
-0.05278570050858768
-0.17021230118984954
-0.3465668661211596
-0.6547534333134493
-0.8962785179828057
-1.1355258444153025
-1.0515240209871963
-0.3052715651897142
0.7791689216629332
1.682855344764223
1.6411198513347216
1.307559415722786
0.6193310556549709
0.13364222825128072
-0.14739311840552294
-0.1489794359710734
-0.03968406654078212
0.02307385292547779
-0.04876606328139512
-0.19587364776874233
-0.4710848279404988
-0.7503408582183739
-1.001253634880882
-1.1366026097328592
-0.7188882064917294
0.2454012735285337
1.1548668308667587
1.5839625609612336
1.3233425973993374
0.8269886017980945
0.3037252878362008
-0.08824549216010258
-0.2976886526691266
-0.21835523888997357
-0.1133282372812347
-0.11407000122892828
-0.25898972713099916
-0.47736904552540343
-0.7146620749022218
-0.9725398707078651
-1.170405153200159
-1.013420446006971
-0.39126078344384196
0.563563573294823
1.4360518131765265
1.5425062312339917
1.0904714221620617
0.4942501368068524
-0.024865360169378264
-0.31642604177427025
-0.32395412111530886
-0.15419436938653963
-0.0629235156802965
-0.12972080640095796
-0.2984410929608185
-0.5379513200589845
-0.8205195608863508
-1.0540004418105284
-0.9027392707838471
-0.10817367953504187
0.9649695628528763
1.6011567876309103
1.6666932971999089
1.272569449529535
0.6051372222430141
0.038226522751509284
-0.3623733492420403
-0.37962649913489516
-0.206568859779672
-0.04061300865108941
-0.10933129591795762
-0.29455540632523636
-0.48970581701819293
-0.7314811874507391
-1.0441217375106353
-0.9561840998196754
-0.005094924738544559
1.1117149857807183
1.8027462350963823
1.6266729804621476
1.1323085869974272
0.5858238327736811
-0.006995863044436425
-0.3497337389021304
-0.3398209635438536
-0.1700578909214605
-0.06269272876104653
-0.17197331301090232
-0.39287241084822444
-0.6946121625547379
-0.9769122330721705
-1.0568336345266731
-0.4613761879565521
0.5987855093267976
1.4825517549036684
1.7214037004394724
1.3628671499566059
0.7542525291843714
0.08657877563529506
-0.3349545435878921
-0.272166511835435
-0.20937848008300491
-0.292855186944044
-0.5080332634552421
-0.42172033533787634
-0.33540740722047346
-0.24909447910308907
-0.16278155098570474
-0.0764686228683018
0.29456017440770155
1.1748435172628817
1.3756332433414242
0.8633491829956752
0.6157994110194271
0.3682496390430726
0.1206998670667182
-0.12684990490952985
-0.021610192238982556
0.1073814679398789
0.14791998972331505
0.028952633107663203
-0.2464025063097658
-0.48652001444672266
-0.6977964444911854
-0.35582162240159365
0.177032962107455
1.4566377615554593
1.9857964304216618
1.9353302643982842
1.5409351091119325
0.9588597705522909
0.4458034348433438
0.150215327843973
0.18513052440325745
0.28805505790503105
0.25825092407308714
0.10869094412341579
-0.0913619730702941
-0.3202727247377024
-0.6326287451656611
-0.5021043031086623
0.1479782878973387
1.0956379117756816
1.7607983612722051
1.7991098332187574
1.3516880602574066
0.7944199361106117
0.3848359801034439
0.10411602559493724
0.08966098237487884
0.11951643335091497
0.12245447513866498
-0.011432763851467097
-0.27474229668047245
-0.5525902493052364
-0.8173942037643153
-0.8077027084227928
-0.15186102724769135
0.769194294241315
1.5849080146312557
1.6646144441172988
1.3285229450933793
0.8713059577491081
0.3481987128566587
0.10676613199716517
0.06476009099485772
0.10290588989250019
0.13976645
0.017565329931181844
-0.17423641350369173
-0.4422377698828897
-0.6616108350902467
-0.7707760375115009
-0.38317585384547564
0.36031722522080645
1.3853762117726451
1.7819628
1.5756510498232417
1.1159700465738074
0.649979420765319
0.3148524112125589
0.21314054633388207
0.2594369420605771
0.2989273793133881
0.1777925241019231
0.014202015619363961
-0.1935324671322646
-0.4521039262134945
-0.6401670350835362
-0.4104896326896228
0.3275777154404281
1.3157256913669224
1.908667788812517
1.9055498467847358
1.5667259732155774
1.1061440276851742
0.7643521072625362
0.550623299222105
0.47750347325270875
0.4944096838955666
0.42097115084279757
0.23748859433123473
0.06055553444501674
-0.1861287482866166
-0.4770724035634637
-0.594252769620162
-0.30414305201417857
0.5029205022297784
1.4390289423884122
1.8562853997411335
1.750739313551826
1.3916941501577194
0.965011708439532
0.5684347942605008
0.39558196659005074
0.36019549
0.3439684057245238
0.24193426711131108
0.08782689137872268
-0.15329150111418807
-0.41548798132638315
-0.6353416541905722
-0.8306021722087202
-0.8575667859745381
-0.4754240622858452
0.4598389955693834
1.3420918932625214
1.7268556000000002
1.607396180518235
1.2210480498672789
0.793011661045587
0.44949352254267116
0.31796119079282364
0.30508823
0.26141636598125007
0.14916367226982696
-0.021822105472265454
-0.22046639724329073
-0.5335860999411829
-0.7061657447645566
-0.9193246696005889
-1.0567613830524256
-0.9030592208212156
-0.188594149665692
0.7558140067850394
1.5074416645564697
1.6998089250727295
1.4610162316880508
1.062268679730156
0.6436387006593824
0.4186611104984902
0.36019549
0.36019549
0.3124663586529553
0.18135942862639312
-0.03925673568109808
-0.3084082517974768
-0.5233197707006846
-0.7251356279096972
-0.9123529681224285
-1.0326517676224318
-0.84109053098246
-0.11155125941257638
0.8441281099099175
1.6044003368760968
1.8719533425641566
1.6752855626746486
1.32633439486556
0.9848207621501476
0.524658314768667
0.48581987478008243
0.4593654914290176
0.378950794719002
0.2405479133968296
0.002337011579745238
-0.21419513779483784
-0.5425886551045098
-0.7400476143902962
-0.9534876980636452
-1.059353988058236
-0.9165091428712433
-0.19151961744732213
0.7827549038585523
1.5317581270092657
1.7591534054383322
1.5967754781141883
1.1754599188372545
0.7226892328928716
0.42301208023230347
0.2660950003955783
0.23558424592618468
0.16920116381923717
0.0417075287657058
-0.16730281912785377
-0.43059582064712737
-0.7211519325083303
-0.9939477295636515
-1.2122927586378125
-1.3806155449146358
-1.5217084119994013
-1.4955112460950486
-1.0998457131885704
-0.22012194150291542
1.0213506218879924
1.7670728837837582
1.741097409230959
1.3892720256936553
0.9614533506650271
0.5922993260407585
0.36950644973014785
0.33488685615286684
0.3414517186804658
0.2563752665108584
0.08797641314741222
-0.11290193184504527
-0.35515220568816813
-0.6201147479249945
-0.8789089720031837
-1.0991617319606877
-1.2842131118056768
-1.237440499573134
-0.5994690228989336
0.4208194724166997
1.4968009865133778
1.7559416983586797
1.5136551298565122
1.0753159202007232
0.6573057928540376
0.3365986700928591
0.20381061651989693
0.23413158743814083
0.19761529368487146
0.07419493133736016
-0.13268297763404435
-0.4101270721694298
-0.6969947815135669
-0.94566026180511
-1.1503028719048825
-1.3155910019790251
-1.2000246325185107
-0.6274477227492428
0.4005965068884035
1.408919802691377
1.6781502739548673
1.533465265728376
1.1742441847295528
0.7558479694391556
0.4082324405274888
0.24837606436896256
0.20230233139756587
0.15899463102271963
0.06952664023487584
-0.0848535104123199
-0.3274842964746174
-0.6063441907187579
-0.8708452394893197
-1.110106658238789
-1.3143919692266357
-1.455465306801041
-1.3078046365709706
-0.29960463091986944
0.8234769092472505
1.411132276687712
1.5215788921939954
1.1769867800677447
0.8255382630050523
0.31871373340365017
0.1539529750380711
0.09280437042066952
0.11393866799059224
0.09813748059332673
-0.008922247065469568
-0.22589810314246342
-0.46512420533487553
-0.7092867417275951
-0.9474822884687997
-1.143911708058323
-1.290382931324958
-1.354217544502563
-0.9018672501102689
-0.053965681889393546
0.9245607693872957
1.693462911222177
1.6140215342938073
1.2188931992376193
0.8020955252322006
0.4107591344305861
0.21354464559465486
0.18406844356794277
0.2317244601241621
0.16552331382673732
0.0360596409019473
-0.19614012868394284
-0.4640010803535982
-0.7233719510818986
-0.9636692244077653
-1.1892407999991945
-1.3739508690529414
-1.4086279473617962
-0.8242879652547715
0.2679119072857832
1.4221901097272458
1.9771197594775922
1.8179132174508454
1.4675429073453972
1.0200145536558316
0.6320220277429354
0.39137406823773624
0.30508823
0.3197501709989087
0.23384783811829715
0.08223771349266368
-0.14403150310313723
-0.4308595716592354
-0.72022873069774
-0.981645649735122
-1.2373370277937183
-1.4303696819356329
-1.3533681543989415
-0.6786052942078429
0.5792153793561364
1.4526055931356685
1.7708529627975806
1.5714400224905312
1.1161041598799406
0.623918606569086
0.24453287630636567
0.101550281207525
0.10558926753386415
0.13000283504016985
0.06660655818532324
-0.11376663157100286
-0.4079929357547011
-0.6993489049499957
-0.9611024241161931
-1.2016744273877153
-1.4031726467392938
-1.461512202018647
-0.9632058780044346
0.03107939238667745
1.190404922594528
1.8230188686326738
1.7690816779465466
1.3311525654234901
0.7925413500836598
0.3485778308045105
0.12763844304993122
0.1409451042176444
0.20349577095452684
0.1575282218919321
0.0031087003076159248
-0.23681000906420535
-0.5510721102008035
-0.8703751279151412
-1.137880977966574
-1.3765996615109386
-1.4631246434386231
-0.8302578892676171
0.32339503982306717
1.5003905686440793
2.0099371542415327
1.8443051745684902
1.3929945902356917
0.8961839577958606
0.43815291111967775
0.2501823340613543
0.28191665016271944
0.30378935555308867
0.2309772440942726
0.04860362991619407
-0.2567749390430324
-0.5905691213063499
-0.8717748721631717
-1.199865703558403
-1.3861054454429285
-1.2143930375695422
-0.2790608460229347
0.8348610045850183
1.5924032416483858
1.7474964004879903
1.425280521548155
0.8945768353167036
0.44689929481791957
0.17870167122657377
0.1061195701387246
0.16022983924546536
0.17506095439003266
0.05351258658853643
-0.26506320337044653
-0.5238655853406554
-0.8069164372819746
-1.1383650343661407
-1.3396508429011742
-1.2076948253974469
-0.2287660209391008
0.6329391830175064
1.3827886178593147
1.6664359204280532
1.381691958335503
0.8404805813204399
0.31498426206046715
0.08559135388613245
0.0633576259556479
0.1337224871510224
0.14075102577863052
0.029190428776591823
-0.17520700863616195
-0.38394116837964565
-0.6268338373507012
-0.9062711069772466
-1.1214445449237835
-0.884635048000062
-0.05974851852002894
0.9649897970504915
1.7000569154446077
1.80414587797601
1.5130253817184562
0.8979491301369162
0.3574076588602349
0.20940729830094001
0.19656951055832178
0.2886960088042886
0.2531136663080803
0.054996611277212865
-0.15409884855686257
-0.43099535166505987
-0.6954461785775257
-0.9993358964122036
-1.1918993617945461
-0.9186213532064242
-0.16890039085628006
0.9458405066317288
1.9457373598303676
2.0229024905259445
1.6913485920102589
1.1421723625837181
0.7588278555243622
0.4381029164301015
0.37746796256832105
0.4039454938284788
0.3433105399666983
0.10682615482675606
-0.07820759973067262
-0.48114759807309915
-0.7323132584216733
-0.9854191886823133
-1.318973323579634
-1.4389685996840011
-0.8929634988658381
-0.005413389944213157
1.2877286687099883
1.8480915
1.7604426260812345
1.436610213190389
0.8620391835161548
0.4771068554336334
0.24148026955887578
0.21315252935518847
0.23449930730579643
0.15727088500445635
-0.04012505548298087
-0.30867855086766544
-0.6222452088581321
-0.8962022873425133
-1.2139843479637913
-1.462856638121416
-1.6129145543011352
-1.4589950025556244
-0.6430887581389433
0.3701016218585369
1.3574897730080917
1.8822951941409147
1.7166637940683431
1.2625999410600537
0.7380712187169245
0.3775964398446404
0.2646094353399396
0.323444555298041
0.34917404
0.23441402095392266
-0.006616639791328399
-0.2745453364653132
-0.607753183224643
-0.9508082960504186
-1.1968772280765942
-1.428817979304574
-1.6426842093338672
-1.5947664315602175
-0.82284469519543
0.38768222363202465
1.4673032500899952
2.025770363874524
1.9184108924957834
1.4806977538452815
1.0569993363293497
0.6444542222694745
0.4002049083876994
0.35471732259307426
0.3788483945814459
0.2859517052007191
0.08934520619837494
-0.18223627819275806
-0.506901476074531
-0.8101672168241
-1.1012678186968934
-1.3505897826569537
-1.521562320985681
-1.4898816679439526
-0.784810418886512
0.4327860557434201
1.4265508788074204
1.9019030318478924
1.805832334692438
1.3863900254020307
0.8979399647571474
0.46312780850588
0.24797989108823748
0.22643751618701424
0.27276528674201944
0.20453389979572117
0.01195261198041267
-0.3854383574030914
-0.6635049993239682
-0.9891235198023883
-1.2761150287983505
-1.520234627277828
-1.7037171775463689
-1.7443336808980014
-1.137834077786126
0.12494492284587722
1.2717254127942943
2.055830332758366
1.8283924037852888
1.2413389019067482
0.6416229999736238
0.27449136292562715
0.09346489906687495
0.15317051460712297
0.22598657562914148
0.21849382510460605
0.0786509945041772
-0.28657967340271195
-0.573025528810902
-0.8559160011585968
-1.1921361777970167
-1.490187287866446
-1.641197369407023
-1.2513213373472327
-0.07623247140200928
1.1988804058322367
1.983516446919357
1.9355273839649936
1.5428028429834986
0.9259158929227203
0.3948949287855474
0.11359779859689711
0.11379619842136215
0.2143377340261089
0.21803634266939798
0.0593944186174995
-0.22131638332864642
-0.5143864003767482
-0.9056098488239701
-1.2164416662856155
-1.4994334038740469
-1.6510166507008879
-1.0441396543316914
0.34927970506268136
1.5615238749501736
2.250487177230328
2.031332644031177
1.5976994965587976
0.97105641430644
0.5740211113572993
0.32276283939660083
0.3117779032895709
0.35726548908418454
0.2786940908269436
0.11214752826285818
-0.25578849264456405
-0.6089919144805023
-0.9712816910127322
-1.3133459165676304
-1.5521204639123083
-1.3594459521688242
-0.4906151040909002
0.730039577016641
1.690705886597444
1.851382551969764
1.466751307294949
0.9162566818805085
0.3863385840789786
0.09735588972470437
0.05219729282656091
0.12110964645036416
0.14461931450758753
0.013837069070866043
-0.24619891610419475
-0.5689540615328115
-0.8983930860761109
-1.2195542716269852
-1.484050501802374
-1.6240144427799192
-1.233319800724074
-0.2212806765073475
1.0062874941756261
1.7606432761659245
1.7232639135636156
1.2943167691838333
0.7407039084255559
0.2685670082041177
0.07755477997625995
0.07858166627203911
0.14985241357451753
0.17832990277512714
0.04413531810563032
-0.21190478126668508
-0.5240518798708058
-0.8425190779247331
-1.156871755937997
-1.3967945340027683
-1.4755652978077802
-1.069574578096119
0.2246832846044926
1.6322706048711073
1.924961133645264
1.7558610520651465
1.3181891983943959
0.820858237811209
0.3902405274291054
0.16250817802462844
0.23274583412332636
0.303036192720472
0.2301410228850835
0.06752533339893861
-0.22449232233807945
-0.5247528742375184
-0.8246734208132338
-1.0968850544166704
-1.3703409915069171
-1.5076718871764652
-1.0127414421617795
0.11044585381115724
1.2002678664654065
1.8158279820213155
1.7851337138281593
1.388449495987581
0.8730197164036307
0.435335335915624
0.17563810935928115
0.14581921525423455
0.22106023590858556
0.21999552071562153
0.06976797053974992
-0.21074395952613229
-0.5246886358525839
-0.8450993721130666
-1.1528948322453603
-1.4143818238487171
-1.6137430125884134
-1.3969620929598656
-0.5941679940551094
0.628191248466771
1.6028684175465822
1.7929991530051756
1.4600398609991134
0.9793330894817751
0.43318520463675664
0.11567190229048221
0.10120056280749659
0.21085707825571626
0.25480123561463536
0.1390502701960156
-0.08970759007949465
-0.357969542405041
-0.5879932915933325
