-0.90655901
-0.7709836629933853
-0.2825146739680438
0.518750180707778
1.0906174076103707
1.1696885069394758
0.9448258855060777
0.7146226089012351
0.43125738630782906
0.33084741792854316
0.29084034246446316
0.24727846636405154
0.11117644347431824
-0.014455695125369213
-0.1535247106844635
-0.3117297699608395
-0.4333999531719046
-0.5405580982065068
-0.6539996424653232
-0.7163790099527129
-0.3673089623918346
0.1757555201836974
1.0518725533568851
1.4346884484651246
1.4819960797761493
1.3662609865554405
1.1133829995349107
0.9353290470873791
0.7467530512888667
0.6158389133800946
0.4995902993292265
0.3808728429328836
0.18146995354700027
-0.045625194485674286
-0.12029343704347965
-0.2536681898932853
-0.335261396259574
-0.42205912044708993
-0.4771832455520337
-0.4549265106981396
0.028993817583891898
0.5920862550688399
1.2642189403917634
1.4041292965508398
1.3601245133474942
1.2217755891799817
0.9417540679714628
0.7905351753920175
0.6725558261300745
0.5781038330200398
0.42969588418172355
0.20831008997808886
0.054107040179958085
-0.13342846501764583
-0.24104458648081944
-0.3691432506336988
-0.4546323812015046
-0.5684138319840757
-0.6276937763953961
-0.72697256
-0.6679821131032729
-0.20140140592262462
0.29450767269567346
0.9185776113559824
1.0998727652062705
1.0398408467774134
0.884957036852693
0.6881352504483993
0.5259968327150637
0.3998901321021933
0.327826525782492
0.20233769257519296
0.051873249563714904
-0.1592308249322012
-0.26126157734778166
-0.39773430291913925
-0.48807732485435074
-0.5814873103450794
-0.6529505185455766
-0.7156527274850154
-0.7437378186711109
-0.5881523638798581
-0.20294738194540513
0.34727613810710767
0.8099314875527827
0.988802845017774
0.9292101701077857
0.7522644249998951
0.5751667659033249
0.4295087886835819
0.3486238542453093
0.2718846429077558
0.1317891775368802
-0.028039639500375087
-0.18407668865710622
-0.3244292128381382
-0.4289943438440218
-0.5068699688443385
-0.5756054205828374
-0.6259788401713438
-0.6727752547963897
-0.7384303809792072
-0.8175707792080551
-0.7539572481959516
-0.35304164025854906
0.26869208000685146
0.8684151825103525
1.1997576870644684
1.25223302458321
1.179773616773083
1.003936686939456
0.7996942228734762
0.6426483142463806
0.49254605312364014
0.36817104420473173
0.21623509053757145
0.026297707500133327
-0.10946111792576663
-0.2569147858727919
-0.382301521561946
-0.46704305323145545
-0.5583516871517533
-0.6290755839703469
-0.706731349923266
-0.7901886959432384
-0.8752998323849552
-0.977887300931612
-0.9681510694008174
-0.6080989227822848
0.016392792665026024
0.5949578062069797
0.9634689722643804
1.0012149441977314
0.9178222181133612
0.753368960880098
0.5409676634889402
0.35085213044647345
0.20994580141350702
0.1024945670618183
-0.021954541445257686
-0.17749636262715374
-0.3419243281212018
-0.4964210910493567
-0.6180422595977081
-0.6980317188578302
-0.79308093362238
-0.894173089289525
-0.9722413040735429
-1.0584037652672218
-1.1315220005791269
-1.2047171121560873
-1.1621596716520466
-0.7839058530541403
-0.20095206872149585
0.4366737613961302
0.6732696396393558
0.6696856061748421
0.5205525954318267
0.2901593866500867
0.1682511698818882
0.026671999812536915
-0.0031349272288620465
-0.052168280003049475
-0.1403922104493736
-0.29498217850745856
-0.49933525818580826
-0.6216718095273034
-0.7562673915836347
-0.8007808694710203
-0.8501822893274322
-0.8900292715804274
-0.9580470948461446
-0.8759421206188981
-0.47677227846665554
0.05192812292672855
0.6149683987440646
0.7707655917989161
0.7258270079820238
0.6138533488807364
0.42092394857876375
0.2373782690082654
0.112888866364962
0.05063600534282263
-0.03327026055034535
-0.1270802013549065
-0.26632868838772533
-0.41500115381872604
-0.5263121134886165
-0.632393440165778
-0.6860189170641919
-0.7625271622729236
-0.8180793419066824
-0.8651150449626069
-0.8414307017299031
-0.5777974842678448
0.06463926816730282
0.5802389298231353
0.90563149
0.9049016646848369
0.7615950514840131
0.557931064858612
0.4091948016872891
0.2792980509650313
0.16588257358076322
0.06206616573930401
-0.050647291907118516
-0.16181390779299396
-0.28642452979291316
-0.42969733576196434
-0.5452619398607776
-0.6361630997087813
-0.7066794983627831
-0.8192039867048727
-0.9153001313342495
-0.9552324396339805
-0.7878026586565435
-0.3453595063284663
0.28967126149181316
0.689514084426079
0.7438379264104059
0.6312112553535411
0.46264988245145605
0.2822353489087493
0.16509444646989646
0.09667213795937633
0.033061694273648884
-0.06442309275507713
-0.1768496698266393
-0.30843090144243035
-0.4481911784112287
-0.5438178583583654
-0.6105417242545488
-0.6760983539207518
-0.7477319793497856
-0.757242789700704
-0.5627684740193886
-0.15013503625336944
0.35868504379792054
0.7288818187636853
0.7949499707082166
0.6948933578082257
0.5097928107868419
0.3481310793190595
0.22738505705038747
0.14643812169387183
0.08915980357967293
0.016572390377200638
-0.08809853185749614
-0.23169645456416516
-0.3452311882476306
-0.4795043027798421
-0.5421997625868145
-0.6066714235989255
-0.6704602974205146
-0.69976249
-0.5820074130369056
-0.18852345214281885
0.4011231084651523
0.9043103354049039
1.0861513181326472
1.0435146089369565
0.9048000054318711
0.695285879946598
0.5399671057490955
0.4263833882636624
0.3070694292187364
0.18343533964946784
0.03719429613952091
-0.10961202428179335
-0.22290695721348003
-0.3506969952720841
-0.46381540516652664
-0.5707163681156796
-0.6841087904552788
-0.7808806613816536
-0.8339633982048072
-0.7559754943468006
-0.42087554957622364
0.10795508836332726
0.6203290760646087
0.7421993848802174
0.664967791597746
0.5108158812956922
0.31962951550608654
0.15963227334184293
0.0395899088007857
-0.008491692338393975
-0.053639893871484
-0.160450570224508
-0.29715170411633945
-0.46574819997735134
-0.5797225818946768
-0.6982663181141634
-0.7727767999628518
-0.8444461128504874
-0.8920172405447991
-0.8919823419641757
-0.6524848373236017
-0.30005008412787726
0.19135468160541683
0.3883424787227729
0.7576116261424494
0.6136019868357001
0.25566672599062856
0.03799519098673937
-0.05502289630021476
-0.13150883106783734
-0.2612127138623136
-0.4578721114317604
-0.7193471733258548
-0.9532846781268749
-1.1354168040552723
-1.3212735614636444
-1.4754472077156835
-1.6267872316144754
-1.7551555501397258
-1.693811299418077
-1.1036368019233644
-0.10758519311518788
0.7909184145624867
1.304794231033863
1.227549075014083
0.9079318752205394
0.6288388752703802
0.32876060585153893
0.11548992674609425
0.0034412927178655572
-0.1392677875252349
-0.3536868770113819
-0.6317727734761311
-0.9174081302519874
-1.1897777709397697
-1.433118094366584
-1.6216632232316706
-1.7737895596965758
-1.8527108363116227
-2.0062719394568247
-1.9571560474566398
-1.4186553026978352
-0.20583742110671105
0.9993162054895129
1.5542657828084014
1.5950446224962473
1.3396947399650205
1.0162594800641762
0.6758871620480033
0.3479775824779871
0.22187089004470528
0.016326333707007146
-0.17125204875209288
-0.435276376954377
-0.782790767161779
-1.0603804861373376
-1.2603388749382067
-1.4937577725057645
-1.7062162181961111
-1.87357612257031
-2.039763259181878
-2.146150578553337
-2.0198318393516037
-1.3179961535365319
-0.1689414388219255
0.8885598462690176
1.3106849418129929
1.1552038892517629
0.8511459663462116
0.44403430569424057
0.13415337632471425
-0.041984923256467965
-0.13914035776190842
-0.3207107803248267
-0.5858394281733373
-0.9193748356525375
-1.2151859600194275
-1.4224436242160685
-1.6392478429377415
-1.7402982486797833
-1.8085759480821368
-1.9005362505873657
-1.9314746663135962
-1.5736283833952056
-0.5788263484300227
0.6630855004343581
1.369801144316179
1.4675417312636825
1.104353633787772
0.6586143764470703
0.328594261412204
0.1644982373828924
0.08149787683092996
-0.02664902867870265
-0.20926024389321302
-0.5162617700471668
-0.800768264907986
-1.0339937539894144
-1.2379283837176052
-1.4225370091058527
-1.5326764906472146
-1.6574826536265186
-1.764159905147462
-1.3981369601617866
-0.5019430341335065
0.8246930753795652
1.810280119343743
2.112477295709727
1.9512343286291876
1.5449931628409992
1.2017005133782175
0.8839127552944176
0.7034475688466937
0.5452999630032713
0.3500469450723619
0.07233336637152307
-0.24126725167342603
-0.5336212778742212
-0.7666861912390281
-0.9490040356430945
-1.0721081558409515
-1.2187079548159971
-1.2673460306722315
-0.930404211303277
-0.11031374619480189
1.1108017804429389
2.097663786484348
2.3757614960840807
2.116114394527451
1.609375461886534
1.2056082531720214
0.8640974791229242
0.642970672519489
0.4557431107931518
0.1991575178784529
-0.1208802878076728
-0.4802886707003349
-0.8467026563674971
-1.101689264761685
-1.3152099891059585
-1.483675260578782
-1.617815995483543
-1.7341980817316716
-1.703789904700886
-0.9445329418925102
0.23634345659879896
1.2346550684545166
1.8320181419970982
1.6877676122537144
1.2331885550242618
0.8344294633340428
0.5247851617152991
0.3623160625338792
0.25321310811130415
0.07612845578246363
-0.16422639057808147
-0.4536166810819016
-0.7000971130169991
-0.8998560092703433
-1.0187743773480695
-1.1556346666092134
-1.233550015669628
-0.958963282973135
-0.12926773767787914
1.1145908428541464
1.9592184146586067
2.2467805138773937
1.9973197508064944
1.5234981624499009
1.1752925082004058
0.8838899341922329
0.7604257038802037
0.6551428915128924
0.43697014874315493
0.1366822807114313
-0.07669898416381958
-0.34037628709770945
-0.5597036030975557
-0.7427728285754323
-0.9057739948141783
-0.9675633454974032
-0.6318051580270488
0.4033416905789592
1.6590702614163382
2.5980350792719795
2.845516508842087
2.6005035492184905
2.174787853179854
1.7325820838449175
1.4165757922888116
1.15716572492602
0.8798824978280708
0.5675396082379773
0.2633641480605737
-0.08440234997183926
-0.339421321218734
-0.5973351566957537
-0.8128123530464735
-0.9849868438446971
-1.1370745692755722
-1.1245343497594655
-0.5137431285546863
0.6927027582011409
1.7953617844946106
2.259693850715667
2.180043339739042
1.7705907084170187
1.37319721323124
0.9455444045016438
0.6481575240605721
0.5086409883784199
0.3994654005478897
0.07083817994686024
-0.13568095048521192
-0.460971085443845
-0.7468926300073554
-0.968663120232351
-1.129461317121685
-1.2890888868377357
-1.4001293612400707
-1.384323037429427
-0.7576770776019945
0.3901240443203564
1.3817539799818128
2.0810439859037175
2.0036699181619393
1.662981634484988
1.2032323363679815
0.9361514117864749
0.7182659140666494
0.5402582129811655
0.4098973054689725
0.05412438795465076
-0.15112735288021173
-0.35392547750827175
-0.5399750998134406
-0.6735155416551966
-0.8004821557450622
-0.8850577743645578
-0.8457894046444728
-0.33467657122354877
0.5213108540972143
1.517444772116836
2.1013596820495546
2.167297695639294
1.9547756279073116
1.4521399550428629
1.0913655730677347
0.7816879950823875
0.6366326586103191
0.36520839219649837
0.1060454810992759
-0.14738650075132742
-0.4618518947356155
-0.6698473366282118
-0.8601121468263458
-1.0036544342396843
-1.1297692420334142
-1.2233730870952313
-1.227531416329343
-0.7747114205477114
0.1753542798314565
1.5334526700345603
2.1987393387819547
2.517767457940905
2.396157164042592
1.9267586124220106
1.5860063525062649
1.1414804136240035
0.9569311251276212
0.6879507084113525
0.41123260505780634
0.10387194256960468
-0.2081748234172064
-0.5170984823037548
-0.7503864651701118
-0.9573289259972486
-1.1424438363771905
-1.3031359509533318
-1.444822532478691
-1.5494070894561554
-1.3133343012852259
-0.5710734827278201
0.5822710901981574
1.5549444248011124
2.012797380518656
1.9107257496898873
1.5720764808899292
1.1537129103375532
0.7445281021399203
0.4670523472273802
0.26130836700291427
0.03261344179096587
-0.29705186400731387
-0.6337164511893112
-0.9287196200536177
-1.1703377766521847
-1.3699051003455436
-1.5223292623719342
-1.6142194841682873
-1.7023905921399083
-1.751342498293595
-1.4403465202528871
-0.6015881362046672
0.562223858535394
1.271761005361024
1.4865086990411103
1.2597694543157198
0.919773231520043
0.5464566828359083
0.26400803924639354
0.11591565328475079
-0.036062703010797066
-0.20181340539716597
-0.5156148329925099
-0.8017725826824915
-1.005993041535285
-1.1424938067370247
-1.2640488986732965
-1.3358580322209588
-1.3784020362584044
-1.4376311756892495
-1.3214711417205824
-0.7955352415245518
0.3343435903231601
1.5063564397328397
2.1332002863544663
2.211726202426345
1.9399351157460736
1.5465088024758233
1.1057313662930603
0.7620660104565501
0.4781764630816009
0.24936163964820968
0.0010091653459094185
-0.2363719843419187
-0.5161854316177903
-0.8379738634669849
-1.1136429778500612
-1.3191240459216873
-1.486456431147662
-1.5949591431811412
-1.7299143831702046
-1.8779896318493579
-1.9699605869898884
-1.5199375559368273
-0.41021422990728496
0.5222719965587467
1.441692855370864
1.5972244241751485
1.4093491709350636
1.0810244337121289
0.6629850452808979
0.28159917219316566
0.03790822669685184
-0.04609100290049223
-0.20293378668375553
-0.5360887085147948
-0.8421539059377354
-1.1109697910221983
-1.2803031472504096
-1.4507731186840445
-1.5653905029321116
-1.7036198339179578
-1.7788682472195307
-1.8734108468738921
-1.7086302916196907
-0.92918777418879
0.16742879452312387
1.3564317911762833
1.6494640031933665
1.5256874571294616
1.1276309949358425
0.7152964172971857
0.39029293701820084
0.1934311196975956
0.08214741679953047
-0.059542677952594804
-0.2877195700328009
-0.545418102032394
-0.763799109125398
-0.9901480946199543
-1.1629961254016612
-1.3301348362443812
-1.4824022204826788
-1.5670877356460626
-1.3085689993897223
-0.48700196519601835
0.5691767887500503
1.4127946778087983
1.7231136067556498
1.507935461535224
1.0904335295374812
0.5965923088244273
0.3592769797953192
0.16326024795472957
0.0344177417796884
-0.12881319659386162
-0.39244487186147914
-0.6468805189831701
-0.8185690184006753
-1.0489483047470756
-1.1904111075092583
-1.3612469845641022
-1.4629049570298653
-1.575114093877604
-1.5913181358177146
-1.2187686226205916
-0.0028058386550969816
1.3352717684865012
2.211989974210202
2.398324261305545
2.1237968672648457
1.7299690574089368
1.2794480637893026
0.9164669023678824
0.6884836771267382
0.4422775305226869
0.16624086566356144
-0.10501717682233166
-0.48222747271795513
-0.8069861885753205
-1.0384669755166436
-1.2361790158901034
-1.4213246134474107
-1.594532286339285
-1.806971734024316
-1.8300607372789734
-1.2958263609045586
-0.18305852767634323
0.9072998062473346
1.6445368426531057
1.7100286473869497
1.320716546020698
0.8692191953404371
0.4220965489614561
0.14975406440852207
0.03033314093048419
-0.08162758257413738
-0.2677157699245346
-0.5523946649220112
-0.8704462321732818
-1.1107688389034007
-1.307857647767343
-1.494142804274023
-1.6174459935247425
-1.7380622762519868
-1.7540546107017068
-1.3361420322163289
-0.17261949381906794
1.083142808030543
1.8493796115163197
1.9007647926361966
1.5752041883368768
1.117242157939146
0.6472973347461124
0.3801259506419301
0.2707032329065767
0.14757491464834324
-0.042207299941344034
-0.26882725381693906
-0.5315850231111858
-0.8114696787661231
-1.0262409251682008
-1.2052050654666882
-1.3258884719827875
-1.3171625584487658
-0.8273285705781679
0.44684468363082835
1.6698501224669593
2.2981863396757034
2.2649774625038965
1.9142926425542246
1.4465873756584293
1.0175061570338093
0.7624430238167629
0.57515498885418
0.3912559714173811
0.15529725332811828
-0.17592862000339105
-0.5725595083494232
-0.8460903091083081
-1.080997303864763
-1.2412668027222655
-1.3326646727366507
-1.4294785376662478
-1.1882103108138895
-0.4311517349502466
0.9884768650374993
2.0139282609379148
2.6384808973920157
2.6559177436201953
2.273022555392069
1.861955514788019
1.365434047567329
0.9393964423808735
0.7438308945207556
0.44533966632488925
0.1324641523507902
-0.2074952868520637
-0.6046211500504952
-0.8583160347526132
-1.0289973328751971
-1.2314107340390248
-1.3510175029502
-1.5283717539965562
-1.5692606425956055
-1.108465992837777
0.11520990627469563
1.4100119435148568
2.2839296372108144
2.4018462397899603
2.0718657146248005
1.5561528607188249
1.0200138987081224
0.5695246771865696
0.34580575885671705
0.10500320845926117
-0.194474504422738
-0.5761290026985693
-0.889756720661818
-1.2410828650788868
-1.4428443993038207
-1.688949091336979
-1.801298315698699
-1.9445190363854725
-2.102972616613684
-2.0736009358821543
-1.436697132438868
-0.3266261328238008
0.9100491047770422
1.8155299015230186
1.736188153325887
1.230411516712821
0.890039174742163
0.5322263559052688
0.30893107096475786
0.18645037228172887
0.05102829004963949
-0.22416069093299776
-0.561145132537562
-0.8435937761271073
-1.1155612714339584
-1.2468337333890336
-1.4016289129972888
-1.514655158631918
-1.6251776036041743
-1.3768131641776344
-0.5050938983976991
0.8005330051331147
1.9663601403118067
2.345890647799215
1.993799309591259
1.5455688818523798
1.0351817014216438
0.6756393498849547
0.46067530925506506
0.30819082713950025
-0.020331315050772694
-0.3569437695141809
-0.7484831389339455
-1.0784493701708093
-1.3051806534506494
-1.4258123084813088
-1.5178651964070644
-1.5868150877932403
-1.627843160262619
-1.3023899027488097
-0.23040461559643727
1.299450276078906
2.480724562379955
2.9033365783690086
2.7043427157232927
2.292978792289761
1.8105156867264742
1.341453007110886
1.0186947499361614
0.751589215817642
0.40538852618514143
0.06431191966190952
-0.29541525536491
-0.6199508828369948
-0.8691226024414426
-1.0867122703020482
-1.2983436801880188
-1.4650423080436699
-1.6101262526237419
-1.569789744214504
-0.9584560333393641
0.18803843705738776
1.6696495326472571
2.4747279862242197
2.21764688634422
1.3381286385327293
1.125913192100624
0.9136977456685416
0.7014822992364362
0.5104480365027841
0.20661671576682655
-0.10953761086583302
-0.5828182194923894
-0.9200321952377715
-1.1948445460813928
-1.4537761809502976
-1.5957391488656314
-1.743621837863679
-1.855634321764477
-1.6552785252818436
-0.8569331420637019
0.35592647985785064
1.5753809191012795
2.1292179166008034
2.0390132600884248
1.5731699427420474
1.095122581201174
0.7905690529258603
0.6461789253786543
0.4944629581483131
0.2631221102632917
-0.05009472078085048
-0.3996550109810999
-0.7135868408817125
-0.9881210498563867
-1.2099214001352423
-1.388735033362508
-1.5489258919218418
-1.6724754785363938
-1.5423982782059746
-0.7936980836254893
0.539856923261418
2.0066803412684995
2.814408063889183
2.9354756404277276
1.8265323021251696
0.9916241565492754
0.7334429600668192
0.5248620901082487
0.3970791744850625
0.2846644317197936
0.11736323290885846
-0.02698848849979594
-0.1821370272339805
-0.3153915401665686
-0.42688004441816024
-0.5409458419847044
-0.6053046868166845
-0.6612678779996112
-0.7358868844138704
-0.7858560866246653
-0.6331478610902863
-0.0689814354637942
0.6330069513326944
1.1364293275421053
1.3391079929964438
1.262676617347439
1.0276987573860799
0.7304804014051068
0.4783503439021394
0.3247465602011547
0.21738082014228283
0.0664980287454904
-0.08125891433607155
-0.24651500174838553
-0.3793883986325475
-0.5045348718736447
-0.6089748479485784
-0.7122207591528897
-0.7967997366047751
-0.8863662304376159
-0.9819317448026924
-1.0675588254907074
-0.9505463670226924
-0.45017718596004486
0.29010617262993765
0.9657162622540054
1.1256990850448316
0.9995796439488078
0.7113307017730877
0.500317267691259
0.2952354130509816
0.18604762653217927
0.1434654019175821
0.036180830384983834
-0.07483530741049188
-0.22522141838479598
-0.3804779891359258
-0.49765437576258653
-0.6157124585178199
-0.6768141294395765
-0.7538185606171962
-0.8060818002523361
-0.7779530110247281
-0.4180733300147679
0.17151738621707113
1.061300095051574
1.3865397352027427
1.3237571054462869
1.0753674815616294
0.8156791240570396
0.5898915552381274
0.3811537088960943
0.2974752039743818
0.18923382945705636
0.04577963153798923
-0.08960419073703761
-0.2259820320972858
-0.3881321940455148
-0.5202322226069784
-0.6018254371528678
-0.6734819240501184
-0.7299847281062161
-0.7975003673580537
-0.7631250989600084
-0.35266382687588077
0.34490758171085933
1.1121977033181654
1.5040419002894425
1.4684311212513719
1.2369837352999928
0.9832568794414557
0.6714314658040949
0.5117393429228748
0.36864884125723696
0.20643379802544834
0.05063661151431148
-0.1498981179247185
-0.30091518814468726
-0.47035812855812464
-0.5441148245977444
-0.6215400959667321
-0.6829489418083983
-0.7277615841022461
-0.7847613337482718
-0.6912484736409767
-0.3126549192115723
0.17758694175618642
0.9268823573315369
1.3363627318997862
1.2809842105328477
1.049202509949555
0.7211348682560447
0.5623576854988067
0.41399425003207024
0.30253732422807
0.13464347992125555
-0.013127340142579874
-0.19067890280167
-0.45379874070593007
-0.5549267997056454
-0.6894623334235155
-0.7607126035575072
-0.817197782425267
-0.8562604208400802
-0.8060410062742894
-0.5441940508011212
-0.002233718188921152
0.6811495845968992
1.127217519982915
1.1643730523311093
0.9643250215134048
0.7121216084160675
0.44600122490188543
0.29001749516408826
0.19662163221026022
0.10384446580158839
-0.024378939132158942
-0.17065094647912468
-0.30958953679527157
-0.4205165026729708
-0.5266242232893064
-0.6157783107751551
-0.6762537473525859
-0.7195784577488663
-0.7301438133651953
-0.6556587475343751
-0.08869025490008747
0.8000548621970583
1.2971369419831777
1.4859238718293908
1.379430564365974
1.1106009693701102
0.8295936664839917
0.5674582706457478
0.4005155465339353
0.29790345914494004
0.1787400706503708
0.017255550449542634
-0.17028352716144857
-0.35273532806532326
-0.4905083353823045
-0.604574132948868
-0.7008942012156135
-0.7732937240239726
-0.8321663928148766
-0.8789367803741676
-0.8253358882085857
-0.4672568336616404
0.21291120485021092
0.9046584113852505
1.210469360825022
1.149529813486458
0.9182701926383255
0.6092726591395273
0.35825408290720345
0.16999354316738058
0.04999304364400815
-0.061242736046638144
-0.21793256698880192
-0.421775586471948
-0.599167261370632
-0.7523563187902566
-0.8331131156925099
-0.8964449171934521
-0.9571524871379955
-1.0129028920697098
-1.0658118248287496
-1.0073620218588912
-0.44176559304588037
0.329993086014287
0.95326976788495
1.171223142438063
1.0577927888820435
0.7529001872620102
0.4987670929455288
0.28948520440931325
0.17725113818738258
0.07949920363889591
-0.019830788328153402
-0.12416339984558158
-0.27733422007607367
-0.3861447949869056
-0.49774197067678283
-0.6060975489349141
-0.6774017238420182
-0.7451956633166005
-0.6981947104763168
-0.29283794294235527
0.34647540985744696
1.065156304365316
1.3292447666413032
1.2496272960093793
0.9871200043991563
0.728511693430519
0.4733889382740274
0.354331344569796
0.2457612499421934
0.1422661719329561
-0.038652395067858225
-0.24650279885988277
-0.41456100496503034
-0.5779141682825358
-0.6806597050632466
-0.7919234806497302
-0.8498739512620346
-0.8689001210183458
-0.5905973471416605
0.05316601056044984
0.8093969025255244
1.3279881804264235
1.36228080398986
1.1679634530009741
0.8641595957317816
0.633216644509348
0.42111591867665366
0.28951026955989034
0.22469736863408662
0.07617021314064787
-0.09956062013467656
-0.2739199251171963
-0.45946948921499436
-0.5707531880232365
-0.694542557822694
-0.7576181607250947
-0.8576374630204128
-0.9394149198864739
-0.8512016986753025
-0.39930303413592116
0.19419522110283477
0.9817735444447183
1.1780736187640628
1.0997350228221383
0.8440505471544858
0.5567227914744646
0.3441859535808742
0.18390876810226675
0.063591637230274
-0.05444414603834961
-0.19137874625856455
-0.36005134381487425
-0.5400272944593435
-0.6951734645789402
-0.7939309995247275
-0.8772312117280698
-0.9601115664247022
-1.0129240202654217
-0.970548772020833
-0.6247034592741321
0.11729412124333896
0.7531671830479028
1.0551086965871896
0.999077424835087
0.7647217689628432
0.5349376471022578
0.3179079984405879
0.20010939913432496
0.10873645423636981
-0.015768337701134224
-0.16538794767701742
-0.32274945515365594
-0.48278769268489113
-0.595345825146596
-0.6610801607215041
-0.7153645446151347
-0.7855890526926864
-0.837784713412075
-0.7136657153951402
-0.2556826084439028
0.3808650425587533
0.9676108994713803
1.2391163787290704
1.1609605916118741
0.9230477574330093
0.6715534629509003
0.477386445752655
0.31502571225226716
0.2131463592814792
0.10922486887052943
-0.039892396362643794
-0.20344646212008946
-0.3817671505878597
-0.5368756004543922
-0.6504401381305915
-0.7419863158014263
-0.8090560674977606
-0.8656612504187478
-0.857741700579413
-0.6549042071723793
-0.05771136915181457
0.5441447701297552
1.0420270339535778
1.2198283189769337
1.115473344248645
0.9145320814534396
0.6749849519260605
0.461250093226044
0.3191702878540792
0.20544511110656058
0.06005842558595381
-0.1309399571709562
-0.30713620923690066
-0.48030259719395574
-0.6605117041606745
-0.7818432552715513
-0.8621458040357639
-0.9240749939235371
-0.9756600836220474
-1.0139547390633028
-0.8998623606295721
-0.5061704038452883
0.17859241564420764
0.7443117603800653
0.9656323791348275
0.920068741029578
0.6734516651802351
0.39917902510201025
0.19506482797442692
0.10400514811756315
0.022972287496008395
-0.07132953623903976
-0.23021602646459535
-0.4033786319730549
-0.5880607470514227
-0.7185150073460994
-0.8429133342711281
-0.9233126242507071
-0.9888732681687078
-1.0195539354237266
-0.9598491586175828
-0.6380942014119404
-0.11004623715469625
0.4938009015365772
0.9547312844217781
0.9719145484031486
0.7440643005448664
0.5165717439580222
0.2827588652514903
0.15443516411976338
0.06426374709589726
0.001707530480526978
-0.12807727302733804
-0.2593852349839354
-0.42027274449328317
-0.565265372157454
-0.6947548902399825
-0.7912659740117559
-0.864189182438744
-0.9224936199366464
-1.000474662278827
-0.9433934247993241
-0.5482637445215888
0.07823063919238499
0.8336964075400364
1.2160264999517194
1.1826155769334403
0.9862188875321825
0.7694938708330419
0.5082112790741353
0.33570711057053465
0.23915259083814203
0.12320583127798046
-0.044654729396049045
-0.20779632183383884
-0.3948895159488155
-0.5727710292529025
-0.7002852260309702
-0.812333864471882
-0.9151120466802319
-0.9735295360502554
-1.0465316857782652
-1.0588820393503546
-0.7075135009677085
-0.08265619129687884
0.5527785694225409
0.9565084969587107
0.9750642034546559
0.7722660788265299
0.5083233557362894
0.28055969492689187
0.1177409492364728
0.01794296928640078
-0.04437590548165933
-0.1680823581265584
-0.3710519881404657
-0.5703375338768744
-0.7354960237396603
-0.885856226933073
-0.9971399012025455
-1.0841203766075775
-1.1479994774479427
-1.1301086139490217
-0.9212044682906929
-0.2789707565175928
0.3049114480290519
0.7822190596455505
0.9067186134086076
0.691540443649407
0.4401365449022632
0.24637773998606693
0.1254178079393015
0.0536065025467137
-0.004317195834423117
-0.09671591763573312
-0.2380489570423788
-0.39951345403988375
-0.5493495728899597
-0.6606332716982017
-0.7199567635055576
-0.7717292175688388
-0.7912031698853328
-0.6898258383283833
-0.0626142472620359
0.7822567571818776
1.0936890086661877
1.2047136278029529
1.0221876430796906
0.8027620279892276
0.5326404991856478
0.3769082308497551
0.25232824763432904
0.17622309284562948
0.03197234821812211
-0.10424664363202434
-0.2541235361854346
-0.4820910700523737
-0.6089785998257587
-0.7172325250061327
-0.7761083189580446
-0.8372489283804982
-0.903001173892025
-0.8325003770960379
-0.5631485616402865
0.2731387273879146
0.8993592941790416
1.2112029585705846
1.1833289339893767
0.9629428486507952
0.6837008603285826
0.39581921413393084
0.24505358039917796
0.12445222755870383
0.010987625796260038
-0.1438060835754112
-0.3296612298659656
-0.4972123124173255
-0.6503319704342307
-0.7779603411596988
-0.8646252695855793
-0.9370553927856061
-1.0112593631149547
-1.079534681154458
-1.0226078066579918
-0.7121285532793271
-0.09153564261121111
0.6109793074552938
0.9378860034908038
0.9111388725990777
0.6430389414185235
0.4056485419973317
0.15540292238684672
0.0010038013725171754
-0.03843972012552519
-0.11165581658537972
-0.23180920991934034
-0.3994770737032052
-0.5529830058871741
-0.6731384690684868
-0.7532582280381892
-0.8171314316953523
-0.8719786081181784
-0.9415522238784119
-0.9520644470883898
-0.6161991911494069
0.03942276895504915
0.6991132337381027
1.1972880087293951
1.2388575191380065
1.0363584377415078
0.7351388829998616
0.4595419827984255
0.29228721140818137
0.19505600136384965
0.11396580363243161
-0.025527125180891022
-0.18657557525716859
-0.3703837555238148
-0.5285633653273626
-0.6390765891788505
-0.7255094420389436
-0.8181935517538522
-0.8897802157053009
-0.9492364087694686
-0.8303335318576014
-0.30657408615900683
0.3735850848164146
1.0913301754342797
1.3579791081321784
1.2851986930058215
1.038291532758672
0.7285039639283667
0.4830497568980951
0.33191436304063465
0.25656328275250667
0.11573290700087205
-0.04436452823105114
-0.2360241766352868
-0.4061309196260541
-0.591408423887636
-0.7081969421557774
-0.8005279394734077
-0.8846546721474267
-0.9636119860611263
-1.0377714430189617
-0.9836077570586862
-0.5641741008775922
0.13123781181215446
0.8821504124987374
1.2827717216648884
1.1317065001440103
0.8943161007228702
0.5564946046497032
0.2656675185708244
0.16243156443087134
0.08864932536475767
-0.011155202106087572
-0.17276803908793653
-0.3589873568652959
-0.5469807755332332
-0.7301382153471194
-0.8354025294418614
-0.9425864471351507
-0.9978346432293594
-1.0459420447790666
-1.0800123237745407
-0.9494556243707301
-0.45939190017438447
0.3959432263444588
1.0343165522504774
1.2698390252319425
1.1011264437399004
0.8488453994052905
0.49409712391283606
0.42109501850071984
0.3461270037136538
0.24205715341042933
0.1413282038725845
-0.04038725675600567
-0.1494452861686577
-0.36255963582121226
-0.5204717295156673
-0.6248323465205091
-0.7355361992908139
-0.8472863360489675
-0.8960709628753185
-0.7127054805254949
-0.03685183184669655
0.671344666342009
1.2411516737392958
1.439328358443815
1.2862649480649893
1.0354730748515089
0.7242080609403933
0.5127225338223029
0.3651080028672012
0.277589016316502
0.1410661704011149
-0.05620354630288188
-0.18604936930821583
-0.378651166380144
-0.5316456833657527
-0.64741210062811
-0.7350960442878989
-0.8022625210434403
-0.8802835312016509
-0.9446531
-0.9119527247123684
-0.6226150898158751
0.122167697547366
1.2149847468928567
1.4396877574094693
1.3981437792869265
1.1206076943859529
0.9202970234437169
0.600936308081072
0.4713823226576398
0.33672634683258307
0.24071110932648085
0.014496091082656627
-0.12787445448999002
-0.3786849052792625
-0.5425716065238498
-0.6892278169382652
-0.7912529542120315
-0.9128327514603011
-1.0041539009120641
-1.080752205553545
-1.1469857490681716
-0.9860471910006589
-0.42145660855413714
0.43824799071307424
1.0329619811825514
1.2597738616815952
1.131921894473906
0.8456924032949129
0.5530864492530085
0.3484257652861041
0.22819177771157667
0.1371939697149663
0.02653929923031769
-0.13001528928440004
-0.30680418728272135
-0.45080330242030375
-0.5531604292681201
-0.625533675817245
-0.6853145847140193
-0.7627818014880623
-0.8395958651200318
-0.7951192045041066
-0.4068843497766183
0.3030617730600848
1.0022188450587182
1.345459222254109
1.3316274987953076
1.1337321938821536
0.9050916345820298
0.6394346468697687
0.4487592623308182
0.3173593443651154
0.17332816986646732
0.015080776037245544
-0.18007443477381102
-0.3834590625877475
-0.5398980952877086
-0.6589891927937348
-0.7424563065871393
-0.8050902504621134
-0.8834832249967961
-0.9693122816083567
-0.905073931401257
-0.4071517760460905
0.3230024019481125
1.0760229878576186
1.4592243485875638
1.466600334857666
1.271781991949675
1.0069175659780225
0.7834963645410272
0.6057021640267053
0.48618442332021106
0.3390229046089343
0.14695223431619853
-0.024197172289080388
-0.23215239593090753
-0.43834840630045113
-0.5981577504449582
-0.7225451818354958
-0.8001891491874924
-0.882188244723755
-0.9569118529549485
-0.963721815532643
-0.7756932948150698
-0.1622524689346298
0.688995764616041
1.1792938422435109
1.332452127650094
1.1857445073969541
0.9546650162033321
0.6714288725186277
0.48922049978769133
0.3533323114374547
0.232353988070709
0.06283338276374831
-0.11261136789286387
-0.31017639691664667
-0.5215182601701318
-0.655496470084853
-0.7791213858177569
-0.8398137048291492
-0.8680086739457625
-0.9111684342793638
-0.9640316182799306
-0.84198011863812
-0.21356587798958204
0.5776966312453385
1.0267779355168156
1.1806703925128494
0.9857566665446476
0.7686923819360931
0.4782471309388019
0.294967056322414
0.22294686739965813
0.12570163700548445
-0.024493148500584122
-0.14859412359478594
-0.3404948978093453
-0.518522788075745
-0.6639093275005469
-0.8014477717836731
-0.8518142744737897
-0.9140120723970234
-0.9898664749832347
-1.068575800137145
-0.7718044485504055
-0.025436236367890556
0.71516101
0.71516101
0.71516101
0.71516101
0.71516101
0.71516101
0.71516101
0.71516101
0.71516101
0.71516101
0.71516101
0.71516101
0.71516101
0.71516101
0.71516101
0.71516101
0.71516101
0.71516101
0.71516101
0.71516101
0.49377120556662335
-1.5093355120349763
-0.4491304953168753
1.5601039161700723
1.7826713465049477
0.7846236652406102
0.3129218266788214
-0.013682902339651321
-0.20180926852120618
-0.30676785579791566
-0.38319172552633723
-0.5368243254138843
-0.7957554840317662
-1.0420485741226786
-1.3027958091701228
-1.4734160040295492
-1.6322641445042037
-1.7254242550411623
-1.799703834978491
-1.8567592112202222
-1.9113422544134777
-1.9667505607744136
-1.6876040189158164
-0.7562909811472238
0.6863115117449459
1.6338200762050004
1.8564934812676717
1.5611186556121293
1.1014157913901408
0.6905551587120673
0.37552821484433907
0.21190402252431467
0.09598942838045652
-0.0668938897891944
-0.2919417894229961
-0.5472325687408308
-0.7724078403610672
-0.9480613524974493
-1.0919063633063126
-1.197832484703739
-1.2684310652347288
-1.3612758345288216
-1.3784271679957198
-0.8776168287239232
0.1675951172277803
1.4129662727105605
2.0878168033580673
2.104041601278953
1.765591325444873
1.3480458510934499
0.970673277527677
0.6798612142650484
0.5129234588625974
0.336035247594448
0.08909328016062873
-0.21364872169860433
-0.5391537599972394
-0.8320592493408532
-1.052019003231551
-1.2032365396041664
-1.3165413809817763
-1.378566291444772
-1.439898447460466
-1.5333767731089296
-1.1915120830902504
-0.4037942717685702
1.3009667483657434
2.0131824109234104
2.4732926660344186
2.3162787338490984
1.9178169393646687
1.448036652623171
1.048703665517501
0.8051169145327685
0.6226541679791027
0.4395230788991115
0.18063344143787094
-0.1252017831993782
-0.48302998098121824
-0.7572063355705642
-0.9683777150528687
-1.1566416206688366
-1.284740715023722
-1.3930195639595122
-1.5057845391558242
-1.5721528968110638
-1.3194722549072284
-0.36934609352762426
0.9782060304207234
1.8789468434591692
2.2992518307905643
2.1968708308316107
1.6842079220312534
1.2665805943433572
0.7609048062021576
0.4696336420690496
0.27439027104161234
0.04002034674317145
-0.21857054701478668
-0.5846049533556565
-0.8279748666729417
-1.029769398074237
-1.2425280543627872
-1.407927479769011
-1.519211154038488
-1.628201839594509
-1.7111790853399675
-1.4969425880823042
-0.7431618810289959
0.5106493637404678
1.490921521145102
1.7843963929821933
1.597638009614693
1.1562510304104703
0.7094663660552102
0.4849414288316597
0.368355956218044
0.2486666625690287
0.07584556912976304
-0.14341542274268662
-0.41309411933082774
-0.7478564845299828
-0.900655746685272
-1.0638866809690055
-1.1787360046663027
-1.2626458267514409
-1.3266659063347719
-1.269581584160263
-0.5117069909034173
0.7174425805450683
1.651695801619644
2.2186729663008466
2.141650125653454
1.7872810343774002
1.2959605827186695
1.012498510154616
0.74382000381453
0.5816321601566918
0.4467103184384965
0.1114308281083729
-0.14318325857794065
-0.42765148997593455
-0.7014094050671886
-0.8758343514661585
-1.0327388405913196
-1.1442698454510754
-1.2440123369972045
-1.3582011357525254
-1.4282503072183224
-1.1267627913009934
-0.06595496916527818
1.222922653240253
2.0299737950697465
1.9976008358385566
1.7161070257150979
1.3112781205335964
0.7632170594157025
0.608259747932042
0.45330243644844853
0.29834512496482146
0.1100064060524181
-0.17559863137770285
-0.49653452678462384
-0.7925765538888335
-1.0522681769966276
-1.243388667898198
-1.3876566560336714
-1.4947375176077682
-1.619380295951832
-1.7256189216423081
-1.8201010897151102
-1.8626207466476725
-1.1564860759835411
0.24519882336429832
1.2518892615550996
1.962160436110047
1.8436705438107004
1.4495507224753275
0.9785972168512458
0.6678863094725896
0.5416014521484387
0.4671764046644782
0.35715805326759115
0.164236626541883
-0.11716906588449857
-0.32158002249130785
-0.4750731784787664
-0.6514157232965717
-0.7672631200588704
-0.9468482916597701
-1.0408488662436823
-1.1782754792117478
-1.3065046123616044
-1.286413472794624
-0.9243388308253672
0.07837293324552952
0.6306518086584908
1.555041033196964
2.0953366527660173
1.8256626433434588
1.335849109091885
0.9383132436365329
0.6386300253428521
0.43473247462455716
0.26420457616577486
0.058665064672357076
-0.1892570353406315
-0.5018384091001613
-0.8055958442488441
-1.0027333600168293
-1.1178645614008653
-1.2483008902410546
-1.3922093091240904
-1.498260866408645
-1.6061515179631722
-1.7234733325553062
-1.868321624402845
-1.9889250599887531
-1.6005327917154644
-0.6084706702772299
0.7629404399828396
1.990969323651542
2.3229063205607847
2.222444613517702
1.8090975810895222
1.4463773010599357
1.1245020254137976
0.8186094001511746
0.6182987292089822
0.3900729776732373
0.05359895291747496
-0.34539043757899257
-0.7625084365993138
-1.1683190613637018
-1.4650904947462615
-1.6649334743057032
-1.7805070382875356
-1.8391579812471628
-1.8809200580928156
-1.9527163893471207
-2.0688775741404744
-2.134058027896571
-2.1418961
-2.1667311448239257
-1.5853780974555751
-0.2955752726013212
1.0953733904038114
2.122901362821201
2.3009552580115207
1.9051369194578402
1.4531595429215534
1.0472626967877263
0.7553138375652358
0.6176974349059209
0.5235768587239362
0.3285622677663067
0.07462551896315356
-0.19664624403535058
-0.44248457459110013
-0.6597527644246244
-0.8088522884894809
-0.9911003574363298
-1.064439850162621
-1.151204325703111
-1.3464785608603267
-1.4384102786343078
-0.985796713223827
-0.13131766632371256
1.1289533113909815
2.0656284768869972
2.213452541216584
1.9442759905160847
1.5504424775774432
1.2133559541601384
0.9064488932671685
0.7077977793407608
0.6001927943872083
0.3887154765853861
0.07800828835094054
-0.20028599252583806
-0.5004120161171779
-0.7348634172079742
-0.9401639942255189
-1.0908824733116396
-1.2117692271363705
-1.2648481040100248
-1.3708302999195503
-1.5064294728969472
-1.1961369010647591
-0.17722000308000208
1.1989379650180707
2.25357551333188
2.5931715578212784
2.4327621523980536
2.091991808474843
1.728135703107685
1.29368040713134
1.0786830805039884
0.876314283758874
0.6665339285436238
0.4072059171708005
0.028432996924877496
-0.21160157503144675
-0.4271558223983403
-0.6166066870208398
-0.7833402898811228
-0.9278831989444255
-1.0478629209644679
-1.1529422622907517
-1.3023097264103691
-1.4377529887799554
-1.3647508677973281
-0.6340176579785218
0.6356975129028151
1.777474458386703
2.3743160066412687
2.3060361535384892
1.980125095059049
1.6049753599087264
1.2535124315442656
1.013711125327165
0.8346362345491598
0.631652346373194
0.37687693067485045
0.11270564229923653
-0.15245359949467024
-0.395681684569825
-0.5625879454543166
-0.7413590301250125
-0.853220608187299
-0.9471798511261245
-0.99913348355232
-1.0808852978680406
-1.1443523618928504
-0.9715056627055662
-0.2384709691601169
0.8259353584263042
2.0013137663323275
2.2291968116952017
2.0154799384772626
1.6312428443902172
1.2110390077062632
0.9105175215681398
0.7146650376128277
0.5940825581934028
0.4200653504381352
0.15235100726467946
-0.03549535933102571
-0.3173992366396141
-0.6012246272867487
-0.7716374323228294
-0.91092503845237
-1.0328736794991014
-1.146843382976877
-1.275225999572616
-1.3666670185301748
-1.2413437481224996
-0.32753571956356425
