0.045263624
-0.06180300919627314
-0.05145697536583273
-0.012296329804846795
-0.050555909579185196
-0.14695462737203505
-0.2827953618032371
-0.44834801366883215
-0.6290487715590224
-0.7882851459619359
-0.8950000045894199
-0.9728218658179022
-1.0262651510081953
-0.9567840297632431
-0.5446837596280992
0.053651579801093224
0.7831761365059541
1.0585141000000002
0.9777956239718585
0.7193879083978993
0.3715610918923884
0.07042199310076991
-0.10799070600558833
-0.1699202500860648
-0.13523071771735318
-0.08074999979256615
-0.08557178071012646
-0.167684908973676
-0.30221296598723557
-0.46806852884242384
-0.6113704681596434
-0.7387591482669433
-0.8584741405541537
-0.914433301073811
-0.9089342853091537
-0.723245620712043
-0.24838924899646686
0.39732516357638026
0.9210460393472318
1.0506274839573806
0.8748478608812069
0.5459608874588067
0.21992455950210577
-0.026126146173681974
-0.14109843892329973
-0.10872265355261224
-0.04417844449428715
-0.05706863695921785
-0.13454278814096016
-0.26093759819956264
-0.43017928363818025
-0.5743656036262278
-0.77709155480101
-0.8715271971225358
-0.9711336133860229
-1.0273434562715003
-1.0482716519074167
-0.8679483210664133
-0.4082613876889825
0.20606863070042994
0.6529228616961555
0.7555936680904387
0.5667081836116756
0.2615749728417862
0.0013158195003467044
-0.2196983580702513
-0.35411237054006856
-0.36421249989342364
-0.3123860320907841
-0.29217125275465344
-0.3222304318687096
-0.4217037507591481
-0.5863767108342957
-0.7596310526687744
-0.8911923819982867
-0.9986534222124457
-1.068045359615141
-1.1287187995104366
-1.082297153354203
-0.7404139626385849
-0.18734712549988825
0.25434389417265707
0.4720482701905139
0.7027838658783163
0.40026870164468203
-0.10206003372297723
-0.6104032605828247
-0.9193309763421942
-1.0856926943202136
-1.0030703383230388
-0.8719867958405847
-0.8067541660333747
-0.9026108928005688
-1.1089014418556122
-1.3509237539927172
-1.5702089750291104
-1.722377990084822
-1.9104430149877671
-2.047103915794806
-2.109660611229877
-1.854666733883985
-1.0558974833413965
-0.049307843696397305
0.7168170874257607
0.8158457145160933
0.46526789126566925
-0.01660080154714677
-0.4857498085952444
-0.8690215546715717
-1.065742568096285
-1.0375356451139508
-0.8617663185094813
-0.6357327203458946
-0.6513875724373974
-0.7617455202628195
-0.9532999521149266
-1.1812207441285112
-1.4049984574786858
-1.5903571501878988
-1.3382852809002235
-0.7677271460529224
0.25825180920054014
0.5767544640302984
0.4577691227938342
0.1286880732389063
-0.39337994869555726
-0.7462945304099149
-1.0317482549513075
-1.11844806804094
-1.0714365024139734
-0.9983374701818495
-0.9819721842117076
-1.0420260408222106
-1.1724186784052548
-1.3330276341435054
-1.609772605742961
-1.7862205559944158
-1.7588708352842857
-1.1872615213960456
-0.4453214513820257
0.38568580734503677
0.5570777923243159
0.3583475745008382
0.021927280153586415
-0.35231226467093174
-0.6478247472648954
-0.871591271335958
-0.886089769642856
-0.7880320375006691
-0.6985453793739486
-0.7327539082599697
-0.853519161806962
-0.9977048745841862
-1.1246421105725497
-1.114999243962048
-0.7429180544884584
-0.07120316440981067
0.5570676591526734
0.753312722920597
0.5355498271989492
0.12497376286122394
-0.25016035534093867
-0.5445669784314453
-0.6929691254209744
-0.6815494723444969
-0.6120043915949108
-0.57603836
-0.5961279335152957
-0.678701329009598
-0.7991685038880748
-0.8894985225846032
-0.7421587180522886
-0.1915494662251767
0.5636651369448169
1.1179859821719784
1.1420110081703008
0.8288918896544066
0.4017331124962788
0.021034158974605976
-0.22887387956871674
-0.37278085870305155
-0.4206204429420624
-0.41170340558458646
-0.43632897969390533
-0.5273154092261907
-0.6874799039880605
-0.8746778044848476
-0.9839769473931906
-0.6912214383283792
0.010730103354195553
0.7683735797185864
1.087255928342738
0.9186408508463456
0.5454935719908631
0.15999862015771948
-0.14077776080973764
-0.351772629971733
-0.44494981156254754
-0.46133293
-0.46133293
-0.48495350352874655
-0.6194548861262583
-0.7908252656052671
-1.0027813383118334
-1.1620989270367668
-0.8841330416372845
-0.22855576266732303
0.7724267465676715
0.9667409292379495
0.8544282124760478
0.4442281566215873
0.18386832613682885
-0.18059966141419925
-0.4334505366812851
-0.5050424543974243
-0.4743521935281373
-0.40431887352468765
-0.46485587994593014
-0.6124379274273101
-0.7720742032765072
-0.9654317437164555
-1.008946029037261
-0.5448810184146158
0.26277032078909
0.9363521578737991
1.1948381962851633
1.00809954587558
0.6628133683769836
0.2660512472732784
-0.03587962055467002
-0.26214554060650247
-0.3431012664847425
-0.29891220194941825
-0.2904405029421045
-0.31885006473269584
-0.42650477456910457
-0.6666540361065948
-0.813980329290244
-0.7654517015621307
-0.31164462502265494
0.4813475095848752
1.0856108196843537
1.367733157921246
1.1718358827221667
0.700974174448425
0.31791588632994106
0.031145254036225534
-0.16482725627197015
-0.23192206
-0.23192206
-0.23797164282759362
-0.35079402602836035
-0.47315144588755226
-0.6544529986375854
-0.8003440677319125
-0.8462363263712782
-0.37383790084175555
0.2905955461464651
1.0652527887422676
1.3132169929526993
1.032531278389376
0.6565426704033893
0.14584831340786375
-0.1690864329241839
-0.4276501258417369
-0.5376501251531786
-0.5098980536709734
-0.49645700656159425
-0.5438233545746293
-0.6305227540336529
-0.7856029906437496
-0.9504413122138434
-1.0242874886987834
-0.7700323295326232
-0.13045104604664015
0.6297633478658832
1.0910931784722002
1.0434333361593913
0.6591826827373116
0.18507987519419117
-0.19016769073777737
-0.43300703712691674
-0.5137203069352321
-0.51868564
-0.5249575033453001
-0.5712443913566924
-0.688872552311942
-0.8556926068873435
-1.0226950824411398
-1.1321814573519422
-0.9942848859432508
-0.4426132682631001
0.38672358906215304
1.0543835441183804
1.1667181923670664
0.8819767570804344
0.4046693058750327
-0.062484273939392126
-0.438395200552311
-0.6884938658605508
-0.7965128117675995
-0.8559564408241677
-0.9444404754690701
-1.1013743741302493
-1.2987615731499453
-1.482365038287047
-1.667746223551175
-1.7455225307488542
-1.420954221824964
-0.6495770791473583
0.13314787651577586
0.6335571253698444
0.646433234382903
0.41241123071339514
0.12680652106779272
-0.11461748106208053
-0.3225728895353297
-0.3955874598773109
-0.3239984268177529
-0.20636225162032001
-0.12691578857995386
-0.14837005248772023
-0.301945754300606
-0.471377633672235
-0.6022810903555252
-0.2879937120492175
0.3921590747563127
1.2437699614298587
1.826979306864809
1.8279180515049138
1.5144990597560088
1.052290537385049
0.572960769314913
0.2115255208752855
0.07696694493051709
0.04090952613594202
0.054841528
0.054841528
-0.02312889983650962
-0.19752882552779252
-0.4004209075104045
-0.547086981007613
-0.33288257240754315
0.2609880264964802
1.0806667795136016
1.6797866236371055
1.5769932039010972
1.1376709101303681
0.6406297473294195
0.1945040383824579
-0.11957946069122077
-0.27876247091456535
-0.3462240843929564
-0.34978649161562436
-0.3880882183933576
-0.4956191730427022
-0.6444299673586568
-0.8277751306822922
-0.9778543285247472
-0.8230299707118365
-0.266290160796809
0.5739701574119194
1.4131098376039286
1.601156100111789
1.356858809202766
0.9438957163601069
0.527676818520265
0.11974034992901304
-0.0666778670341741
-0.11721662
-0.11721662
-0.19732559842289701
-0.3286827377433806
-0.4510773881418225
-0.6781997282375172
-0.8425729804122648
-0.9990991180625631
-0.9419554017476044
-0.28329824716420626
0.5518743143070373
1.3572487498803898
1.5418224079628753
1.2886736794029123
0.8218875180136732
0.33171516389594885
-0.027810213254106278
-0.2618402100953027
-0.34662749
-0.3377694004014189
-0.33195005083042084
-0.42783769620917944
-0.5816841408824347
-0.7861285604408266
-0.9381319204058112
-1.0754546147558877
-1.062757337232496
-0.6440837364229585
0.2641422976576741
1.1380186574434692
1.5239532248378727
1.4202700456164072
1.0347555700010447
0.5570129275518004
0.11476823691112695
-0.18067859782656914
-0.31091987194175136
-0.3160432815623257
-0.28927477
-0.33880671384893235
-0.5037214767797694
-0.6971427127059748
-0.9013735709855081
-1.0905598650894737
-1.1947118680897182
-1.0221578486091643
-0.3097180571287458
0.6119945321261047
1.2572201885314533
1.5201817669839641
1.1925281116540707
0.6810122871970912
0.22446440706189483
-0.14951640069287514
-0.36148552671003154
-0.40398021
-0.3809071741300665
-0.39157727005337817
-0.46929442502248997
-0.6031096653511517
-0.7955908086612977
-0.9929732726111158
-1.1334251810378382
-1.0754240627350455
-0.5041470567880858
0.4143584242625164
1.2490620762721618
1.6987126916063018
1.5792814230196994
1.1792004991804133
0.6574524445332139
0.25651722892544965
-0.023661550179170016
-0.14048561379937885
-0.17456934
-0.17456934
-0.20472048004206328
-0.33756473896989236
-0.5055614613339188
-0.7346786367624536
-0.8885997403498448
-0.9020324703262571
-0.47584280577015486
0.19454514864000466
1.3953399990805988
2.029577752996302
1.9626664803880574
1.5304444362059137
0.9648991492885625
0.5238241735718555
0.16035750627275863
0.008568666068142577
-0.0008336499261740373
-0.003825785759077027
-0.07950597939990538
-0.2032874660408191
-0.40638560858167155
-0.5986469051982726
-0.8448734154610048
-0.9055353310294456
-0.41409752925296817
0.3508450624903814
1.3716640906977178
2.0062863476680075
1.998291945192036
1.51530031355237
0.9379679754025543
0.4664665138590917
0.11143868113566249
-0.031502387046392334
-0.0598639059999999
-0.06757230444188629
-0.11940310704269458
-0.2092802978175307
-0.34591271457711864
-0.5510594744653925
-0.6657922133272969
-0.49625374126466376
0.19236830668635613
1.1494762243767256
1.9820446887971044
2.2773028158111637
2.0289257142012933
1.4694004579552176
0.9922696890958428
0.5265431450062431
0.2167818877146203
0.08352076974784861
0.05149768662196822
0.012337040979009693
-0.1306574176417671
-0.3054628409811671
-0.5881184483283879
-0.8056248252522316
-1.0229005129568467
-0.9406143384178831
-0.14960571802290218
0.8148846061597781
1.8696423311169494
2.0693199446804162
1.8727990131313366
1.3939553581971478
0.8797350958252002
0.45989605935823896
0.16408487967586305
0.061291327423780406
0.054841528
0.032746466444374525
-0.05928855342345837
-0.22278840701402552
-0.45747459100034954
-0.6869358761954083
-0.831356359178976
-0.5592929203223309
0.16668040221972405
1.2980855974306225
1.9481951466829104
2.058222809157969
1.782869273325275
1.1589393941366488
0.6053768164481584
0.1660779316524213
-0.06961735942524001
-0.15372101849927483
-0.18019624247217136
-0.24375393369116072
-0.38834320600271455
-0.5739240607811169
-0.7761993772237219
-0.9959531739953484
-1.1728323171903996
-1.0607722774462731
-0.45179850970438895
0.5963754320094959
1.4415932430648237
1.9269475699160066
1.7806715005733422
1.3020457223854627
0.719455487987093
0.23496586699356936
-0.10250595476921587
-0.21292109074832347
-0.23967889016460237
-0.28597844716754695
-0.37264926673170706
-0.5146208922555305
-0.7072459178981336
-0.9325672963231678
-1.1558584749111975
-1.316481364145485
-1.0741211022127335
-0.40826086537033723
1.131500289107491
1.6745433569727912
1.9229814441761237
1.5957300875599558
1.112727864026755
0.5385520081883337
0.16880174608216886
-0.023059812061365786
-0.057766855048758066
-0.06993158864737167
-0.11693528374370381
-0.24333009053239854
-0.44270737631255797
-0.7094059618595268
-0.9509082850382977
-1.170124151015738
-1.1221141962227534
-0.6894262918887795
0.2969043658254106
1.2376506694941916
1.9205876771603656
1.7442551541769016
1.2855420131194881
0.5642474189578155
0.15096295720460812
-0.2106383365579631
-0.37378851317031436
-0.40416474267602853
-0.44803793165745737
-0.49484803354918605
-0.6642876153024153
-0.8848733301108002
-1.1126953317922945
-1.3590175800946627
-1.5340986120518796
-1.5651200440055524
-1.1597717019214873
-0.24570798085483206
0.9292036917464979
1.7285235782724884
1.8107270600772887
1.4155022698275785
0.788039345113769
0.22763791361458235
-0.12235809960521077
-0.2703152622013198
-0.28276525928862284
-0.2414354880707944
-0.2526257371858416
-0.3606884263589905
-0.551884520404617
-0.7356552128026694
-0.9524426313136891
-1.069392207435748
-0.8783510231911293
-0.14190181037627225
0.8141715532362864
1.5427091518932727
1.7752705906399067
1.310683255939307
0.9664913401493556
0.25103262949835053
-0.1733036929421358
-0.4068088768632574
-0.51868564
-0.5192923441033928
-0.5939849094884027
-0.6651507130850107
-0.8457044178538982
-1.0389986299185323
-1.2921226945692403
-1.492534079835766
-1.3883323442246627
-0.7880069011862384
0.20299843010523597
1.15382663366887
1.6064896863263505
1.416095628604956
0.9588497272969838
0.3232848537355959
-0.15616280542247224
-0.48960972873603964
-0.6494619107552239
-0.6947513401151401
-0.733148562417636
-0.8453885247359677
-0.9809856720247682
-1.1399330691726473
-1.2923392583418218
-1.4194584622743207
-1.3802541729112072
-0.8717674173614345
0.12502692410605798
1.0881255869671032
1.60975989304147
1.5597914715606094
1.1811638143105898
0.6781781653734721
0.12731274459849312
-0.20872932181322626
-0.3836594327836354
-0.41609315002715275
-0.4269503191075109
-0.5136343025343014
-0.6341685188677609
-0.8806246262787856
-1.0396379444789055
-1.1202325402541748
-0.07621028020043052
0.6327007460339216
1.040199449605796
1.4476981531776705
1.467775042632113
1.0539459441778811
0.5838301731513058
0.0932838088622941
-0.3586952675568523
-0.564701974760468
-0.6933465824606392
-0.7123484651023279
-0.7748376424637766
-0.867013988338166
-1.0656126569607
-1.2889015697241073
-1.4608925592859054
-1.4427044925311303
-0.8906621940335984
0.16886994437441427
1.0389694604607853
1.4485565782645455
1.3277200467676877
0.9067855528681823
0.4329326991519691
-0.059493032289317405
-0.45208649025268144
-0.5638193680053082
-0.526535565624826
-0.46333306993094453
-0.4820825967026642
-0.5367057553732026
-0.6896659122944925
-0.8639898376887828
-0.8519751720375742
-0.3088636263390431
0.48530951540611394
1.5838665073026166
1.9319620873438557
1.875407432152075
1.4092889608052979
0.6686997690286063
0.20824746121817284
-0.20101301523849952
-0.38362924749701705
-0.40398021
-0.41103306784442384
-0.48837369325196306
-0.6018129982704574
-0.8013897069913317
-1.0195192462678164
-1.0958898040714553
-0.6567613457357622
0.15638950808713853
1.2121881633887848
1.89391958845922
1.8860779138757848
1.474547969387713
0.7971168262227537
0.1962300848900807
-0.20908439037595816
-0.4597971443746436
-0.5531798037620218
-0.5806181875140354
-0.6200951709366509
-0.7351442740820971
-0.9379750123924881
-1.1656039567525622
-1.2726705995509424
-0.9460613391670254
0.13086175305761338
0.8338108202876051
1.9052971237858105
2.060785584676497
1.8096481291729556
1.2856865937559794
0.6676589718533734
0.1720536043089873
-0.1288975046731468
-0.2248687291497699
-0.23192206
-0.25343601057799464
-0.32983852025698013
-0.5205450001896874
-0.7449411622052174
-0.887696833883048
-0.7688559374459726
-0.14205055187161508
0.9052208274077318
1.6195850217198078
1.7821676269991893
1.4489709376955657
0.8654218278603736
0.2464203554586707
-0.19277756704824853
-0.45438469352368177
-0.5535993858353595
-0.5310533497438897
-0.5590608899631142
-0.6665109527718571
-0.7905243254239663
-0.9791682836586184
-1.1653029645970243
-1.081699792519495
-0.3811511256784098
0.5785825732108822
1.4963703635526122
1.871000493078334
1.708628614898943
1.1843966549153737
0.5798739551803594
0.0668789835797528
-0.2867766785253585
-0.45247370380295965
-0.5116508655974232
-0.51868564
-0.5502649870252295
-0.6879495912689565
-0.9080647873365654
-1.1245753436015615
-1.1396794444387743
-0.6196559602168932
0.2958889436845986
1.2911402096266915
1.8231515099443556
1.7596589160588914
1.3374240359285694
0.712814981340135
0.1596209215550602
-0.2708946069135495
-0.5795903324644864
-0.7105502656478648
-0.7805622356361688
-0.8371072041413878
-0.8867883523463916
-1.0577005734296538
-1.3326109199597092
-1.4957641780142574
-1.2377194673371523
-0.3540745641920803
0.7499832625773286
1.6301309581999681
1.8224695706509961
1.651056419301185
1.2474760268794323
0.7872682714130914
0.40278760025236027
0.1847615964794743
0.1895059932280146
0.22312372445846843
0.20947799779888246
0.112119731432806
0.06622747119309204
-0.0008994407340223096
0.9571615930647167
1.3391882824775485
1.3374781972940453
1.3357681121105418
1.3340580269270386
1.0451731274257834
0.6030435464957656
0.16091396556574789
-0.2812156153643177
-0.40287438164666023
-0.4650117453746012
-0.527149109102549
-0.5917847944895541
-0.6656399872868086
-0.8477781189942806
-1.0767321314716307
-1.1379064516165782
-0.762056240589029
0.09727033665776819
0.9039869711659785
1.3798224249085462
1.513667996991278
1.1006376532334474
0.38124875789261053
-0.1851807248972675
-0.6295877844237129
-0.8507958893640926
-0.8625487766723726
-0.80544923
-0.8196595603358714
-0.9493944049908892
-1.1181053314659737
-1.0533133554965606
-0.44132650043584964
0.49279651085986864
1.2743126276702583
1.5088987779640206
1.1198244954599479
0.5637811188892112
-0.026996355315971443
-0.49121600703066814
-0.8522883855266876
-1.0181572831294383
-1.0348601
-1.0348601
-1.0685299118835532
-1.1736121626198301
-1.3139782429031388
-1.122071833545195
-0.5130270567408561
0.6215021636396822
1.4872243369101115
1.8230430623409144
1.5650123024645481
1.0074864103024528
0.3881404890059065
-0.22865443164342603
-0.6491423243879245
-0.8523117005759684
-0.9084778999397509
-0.9367102280289833
-1.008073218651117
-1.1439861732251269
-1.313893222985596
-1.3908064456324094
-1.0066547291807844
-0.1523522695027203
0.8346335124796964
1.440851388085243
1.411568524992848
0.9377553549616147
0.3438655252140325
-0.24838811920509643
-0.7213186847391178
-0.9958787249986714
-1.055391137695522
-1.0132946421841633
-1.019104651805912
-1.0932029090340452
-1.2353861828925432
-1.4106111461081254
-1.3217937473064743
-0.7292873565359653
0.22761593052359663
1.0658520003753162
1.3442424382035594
1.049178861243199
0.49102171423522395
-0.11442788202969328
-0.6802783466876876
-0.9972911627684068
-1.105480017420014
-1.0769385033659062
-1.0419362896756785
-1.1042972619361655
-1.2458163344520383
-1.4489820931242448
-1.5584751808532775
-1.2527965479009913
-0.47325956184710405
0.4539965946359705
0.9487744440628869
0.8840674064184938
0.48426415491343133
-0.10249424372316596
-0.5827188285672894
-0.990305381405914
-1.1868046967317452
-1.1770872365092584
-1.099535753926726
-1.0715058122023
-1.1685617762216618
-1.318665673353979
-1.5135519292988986
-1.5393973970374213
-1.1134841390906065
-0.2530122651503225
0.5560985342521032
0.8290383870405339
0.6841737117440672
0.34940177249293775
-0.12444871018776238
-0.653953019965086
-0.9665164930724652
-1.1299265056652907
-1.0746267372607603
-0.9604238252736031
-0.9212635365747721
-1.0451484944342444
-1.1770283782349207
-1.3553769676552951
-1.300789786012846
-0.8729041997855529
0.007980309564483763
0.6710278167669226
0.873919889905485
0.6062860390394306
0.11371599379555526
-0.33085698667878005
-0.7464129520018639
-0.9218082163391571
-0.9312105294645532
-0.832367276915062
-0.7272894538955986
-0.7003215889574712
-0.8069584165313262
-0.942437864375679
-0.9869772398478933
-0.706369168702585
-0.06481411485782274
0.715572152419538
1.1445432
1.0340056517818736
0.5957181306843236
0.1082388244249646
-0.22098949550151484
-0.5241904560460133
-0.6205497000624872
-0.5627819640605015
-0.48979094911063475
-0.4743205969216668
-0.5456644716051332
-0.6898973992755876
-0.8737730054493883
-0.8846498397013747
-0.5292113851085718
0.11205446231348315
0.9594316633643282
1.2148608200171789
1.0185849854911257
0.6151685601702598
0.193738569394656
-0.2000876170322971
-0.4814593795709028
-0.5488386100220108
-0.4701038026998187
-0.37016203397994374
-0.3733399107393401
-0.4710948012589432
-0.5889004541281526
-0.7260374280715777
-0.630925596746634
-0.007058475835933331
0.6988171152733986
1.2316688220932146
1.2892789590849483
0.9850658216870243
0.5651940446056039
0.1282356121560947
-0.16496677562776524
-0.2720969047301205
-0.2183695993697256
-0.11320386171717584
-0.06630824625560279
-0.12986282735516244
-0.2685691907021128
-0.41506167142029826
-0.42586476041700355
-0.030375315081549614
0.7376328952449052
1.496185900291046
1.7388441538404766
1.5325145772724127
1.1315151181237297
0.6819446522387176
0.2763300879879939
0.05485229106142983
-0.0025111889
0.031460760525423875
0.051164886555343236
0.046913058191409306
-0.04278235238855092
-0.19057562869581152
-0.3539849358226318
-0.24870760756297847
0.3027323686214514
1.0979072380214316
1.8397228678743356
1.9028357935803886
1.624426064065389
1.1865401930276644
0.6939297428699258
0.4059739637094848
0.212142416700914
0.2261574697033534
0.2761683102698705
0.2842524
0.18778580630461705
0.029766711932070616
-0.11577507358317247
-0.25228786637250356
0.03752838957197291
0.7922552429982073
1.6486330539288843
2.053891213805974
1.9840433994151074
1.566898289140764
1.0069032502055952
0.5263193576790363
0.1663231245134325
0.05823195617496521
0.06432860162010626
0.09818858151067039
0.05560010089319747
-0.008165579769274872
-0.18439184055774385
-0.3822998451907536
-0.5000003565647948
-0.16223313336563605
0.6550196600683885
1.684558111839205
2.1204278021048815
2.02050333371605
1.5502803107516832
1.0456644113604168
0.5193889194912753
0.19177503295982648
0.019014495548215635
0.003908186516350564
0.05026294600027424
0.02060948829520705
-0.09950947779771005
-0.2827937909499375
-0.49598135276963623
-0.5885012855715188
-0.2667266390057091
0.55442148507069
1.5092992852610896
1.9360106
1.8925465045235288
1.4296701996293226
0.925339182190541
0.4940173159736204
0.04149553129547649
-0.04301848490662136
-0.052992687255781726
-0.031187547
-0.06505140822346626
-0.1868435933470567
-0.34106530408790425
-0.5442060251443451
-0.5734265110378314
-0.07328779733692825
0.7573851001550245
1.5501603752919535
1.936366315057517
1.6702201674433765
1.220135242763391
0.5840304272480341
0.14162418856556847
-0.12956784593475157
-0.22514192895917093
-0.18393016438146886
-0.1870201831691098
-0.24819455932636852
-0.41544835290568727
-0.60508918654936
-0.7977493156622245
-0.9728233983959181
-0.689175114774006
0.18297865285246703
1.148253335077522
1.8926308075345972
1.9535922713825589
1.5697619035454509
1.0626913769840893
0.39110684971593185
-0.018229539402485728
-0.25686513062625943
-0.3172356946740597
-0.28168247520003803
-0.27290024137015867
-0.3617487227247064
-0.5137096964055958
-0.6966965556318362
-0.8524113584697244
-0.5947723716655873
0.1712688829490161
1.1724026812709214
1.796086050757168
1.8633366604989154
1.470073780848969
0.8980877957313756
0.3161851117238987
-0.046828043261390645
-0.2519203074308499
-0.2657417502717682
-0.21403641132141712
-0.22120386949422002
-0.3187385201679236
-0.5252332914476733
-0.7224955029965234
-0.7658365654424336
-0.3186109143390896
0.5585995439022774
1.4855292864829543
1.9596169207877687
1.8797705933048505
1.3740837148781146
0.671011528420747
0.14604504162188842
-0.2307574282783359
-0.386565518368026
-0.3762451202926934
-0.3509260330437037
-0.3752246718409246
-0.5228932466540737
-0.7215207870422033
-0.9768260658543784
-1.0502113716016428
-0.6324099850281095
0.33765463790444583
1.3929205785246999
2.0222039913261716
1.9760927723592794
1.4852518796613667
0.8888977080567786
0.3246807962052844
-0.09560612464097717
-0.28519653731053174
-0.3233421549002278
-0.24586239406327623
-0.2848379821787866
-0.36803889616257385
-0.5857900032701573
-0.8331117144017148
-1.0947883919038905
-1.1681976720989458
-0.6541992478006909
0.40364668546484106
1.419477950355832
2.1597007793440515
2.0742884681085196
1.6765402818774189
0.8736429085862567
0.4147031384174058
-0.15027474073807998
-0.2678036875932269
-0.24525172618624186
-0.2032457
-0.21628975150203938
-0.31904191742935717
-0.5150078410332354
-0.7806335598212002
-1.034307233890654
-1.2191972873775605
-1.2556493018817818
-0.7804552421997091
0.23079486559885093
1.5422906512293488
2.0355011405239805
2.0023153866844456
1.39362407774334
0.7492581819221797
0.13791374979742393
-0.27011029525416147
-0.426068363310025
-0.36467440660627964
-0.2661779533111948
-0.24809117472002745
-0.3361272810931616
-0.525608668009584
-0.7414400362368913
-0.9490724627802392
-1.1800665853500871
-1.242634020160009
-0.9021738499626695
0.019559223178019502
1.0836248970792188
2.0121463633218255
2.065911844146401
1.5295554245898717
0.9317871942228038
0.23573932683605203
-0.21531779632705061
-0.4632936465195675
-0.5241475440011757
-0.43630372046576776
-0.42428582867223846
-0.5043623120607151
-0.6652460554638886
-0.8981813855148894
-1.1276855464266706
-1.3458357964269847
-1.4443598360934906
-1.068267229108619
0.1296249512248135
1.4055036181633405
1.8261978857034111
1.8033416682732275
1.4791112347971846
0.7432142824398253
0.10575535071926817
-0.3471315833643512
-0.5556959096332499
-0.5884633775401547
-0.5330306031671842
-0.5139876638006503
-0.594069473485864
-0.7699730299716726
-0.9957595458304489
-1.2344881313261076
-1.4300287988759819
-1.434633940181192
-0.928831902989027
0.10594575211522195
1.158879314745934
1.7340393159734138
1.7006936963891393
1.1887573964935494
0.5879601978230269
0.033187806610899734
-0.3568963758200376
-0.48462052575805825
-0.4746257373537379
-0.43114882420799755
-0.44280964828897335
-0.5694377678478822
-0.7912809313232774
-1.0189420315800797
-1.2230821008046018
-1.251360793862132
-0.8863847862570574
0.09268061276071216
0.9972996543658564
1.621654690744543
1.5298701254553002
0.9531367117143841
0.2255737320037032
-0.11135825646999037
-0.4718920058971811
-0.6213937271953607
-0.6043146516312963
-0.5773940278425008
-0.5900332307108033
-0.6873220895679027
-0.8957237929786285
-1.0697749388721014
-1.3083481597657869
-1.457164564012873
-1.2039013479306264
-0.4419598990402329
0.7680824020240709
1.638362013578898
1.762385263545891
1.5055859305385753
1.0142204177409055
0.45256429623046884
-0.012601525755372052
-0.3025219362248147
-0.3840800673803848
-0.3413466610922169
-0.28927477
-0.33861297449647365
-0.5063146725856517
-0.6939775311211362
-0.8992751160001701
-1.0914053839260094
-0.9388369712651509
-0.2099503856056223
0.920206404258292
1.736285050635345
1.8832033695975603
1.4893903029871576
0.9114714354899683
0.26561707260700806
-0.15061307921254727
-0.3701544235467034
-0.3916682094075671
-0.3158934327500367
-0.3520615320426436
-0.4649978940459493
-0.6073681887777507
-0.8466298290625084
-1.0656115157385433
-1.244174350447334
-1.1013078916304628
-0.3061820155693093
0.7173049190879848
1.574896744572068
1.8653322157999657
1.5663486148786165
1.051361509244147
0.4586648875350873
0.027799619935233888
-0.2976403493144526
-0.37238961727696496
-0.29366474940631476
-0.2581419104805209
-0.3062598921179837
-0.4332414470746942
-0.6747511442204774
-0.8782153244299924
-1.0506068250124658
-0.8602849691920811
0.09872962211544359
0.9996582126985972
1.9129163433470977
2.05028748222813
1.6553720218746801
1.0727713374957133
0.4472854596176542
0.030998342858385264
-0.2334183352374745
-0.24749705772739572
-0.16208295119400848
-0.13839367443284345
-0.22094398551938263
-0.42448860746559375
-0.6410490571411875
-0.7858799666141101
-0.5180145532205441
0.2556022505221561
1.3754887395917397
2.0549286308532957
2.092496849894729
1.6895439329115836
1.079227194816466
0.404051026967372
-0.011296314792482415
-0.19066217265592383
-0.19882796503002442
-0.15141302732772216
-0.17797373163047722
-0.304234547509633
-0.46502873018201724
-0.6529185949232625
-0.6137133703404786
-0.028420408913194306
1.014165454548197
1.985469148966467
2.2852014332711668
1.9725550827838687
1.3565197917219094
0.7378739291459961
0.21148094106220666
-0.09040477407705014
-0.16963853898474124
-0.1488137112054885
-0.16655986022186062
-0.2637765177942004
-0.46922619085527695
-0.7120645927536075
-0.955274579335021
-0.901546108876673
-0.18845015785525876
0.928700709719799
1.911144472084231
2.2061843243518195
1.8225951292753555
1.187807301237005
0.48692753661947874
0.014261014701670183
-0.2599560367677719
-0.3402469108270055
-0.32047652087110773
-0.33479998829500746
-0.4480939086998131
-0.6421543006659479
-0.9048108096285425
-1.1814889776720625
-1.4394971580286282
-1.4264830510672644
-0.8189265658712811
0.26799024618903
1.4611450287107848
2.0614215447564903
1.8274700292400916
1.2751811120079228
0.6283145350418962
0.02986924778670763
-0.46592279042097695
-0.6008825044797862
-0.5162248561468407
-0.4786829033624415
-0.5092610580231804
-0.6437360406391618
-0.9427429945792885
-1.1693079634990389
-1.376624861897379
-1.5966743814259103
-1.7333700528655702
-1.4879780575039634
-0.39484923517970155
0.8961536711700323
1.7837193016802166
2.0208299448088023
1.6176438085245994
0.8527178396899615
0.1543573666965297
-0.3922886744878808
-0.6273465763949724
-0.6411513897328933
-0.5187567473362147
-0.40722304605825416
-0.43475839964151575
-0.621156816927119
-0.8483528804211189
-1.1134918034417904
-1.353193858277016
-1.5102268051190548
-1.6479330549980618
-1.3386628042068387
-0.34260499319683874
0.9580030509469127
1.9301127829683795
2.2628272460753167
1.6689480887007313
0.9815893264387077
0.2794561579345438
-0.27026176227065357
-0.5046124020036277
-0.4557692905450429
-0.3089961228231967
-0.2362613692014007
-0.30831444478613307
-0.49512101254477775
-0.7763289677085369
-1.0037752536064604
-1.2467571803592947
-1.246747508163427
-0.753125913338842
0.388844164184195
1.466756187678201
2.0282336000849988
1.9422875553640495
1.3913562641896238
0.6592296583100911
0.025269824245345407
-0.4002716580593102
-0.5791137340405388
-0.5199640224498038
-0.4052333758514004
-0.3822907021018048
-0.49981267614279595
-0.6662038256626749
-0.9635736281972052
-1.270269646946564
-1.3674053804585005
-0.9152011347795496
-0.3415479337944155
1.2542631617407878
2.0864812236770485
2.439059720852893
2.0703063505961428
1.348709788569658
0.6494391598565459
0.11826544006947315
-0.2133329875446595
-0.2939825087521814
-0.1639868737442438
-0.09495881291970217
-0.1500281832999016
-0.3203003841237505
-0.5597578633318951
-0.8510476761389072
-1.0834983932247506
-0.8424740858827513
0.09390958112445424
1.3810582087170151
2.2527012812677154
2.393896580799463
1.922123666495764
1.2086344194436762
0.44541829778003506
-0.058069786578872074
-0.30079210527478406
-0.349157592183183
-0.27049868387187914
-0.260609324587494
-0.35005691235839637
-0.5350340662408133
-0.7430636588416186
-1.0106029900751856
-1.0922128
-0.6477428356641748
0.37279925425978067
1.660389540691518
2.498794087499526
2.5190010796106557
2.037471464179147
1.3147690495405744
0.5747482463727878
0.09287955706535767
-0.10928743899715797
-0.09627674148287194
-0.037270439804795746
-0.006660305004721909
-0.09057654266525438
-0.3402201498232932
-0.5350110821291576
-0.7655849516900926
-0.49966347866410665
0.5734657567956442
1.4993906115317555
2.3238296244557626
2.5407893775314325
2.0010964697044455
1.2171428026545446
0.5314781989462227
-0.0020468213635037626
-0.2694892863056389
-0.24288127464285839
-0.1729154760120595
-0.17062932232694614
-0.2941576157348065
-0.5347571200317388
-0.8059646975108573
-1.04669944184221
-1.0580486594953755
-0.4838223792907095
0.6805686043139354
1.8545793972677884
2.6751822718043954
2.5134046737908635
1.8196552374070767
1.049348089878209
0.39728482931390163
0.025380849317250584
-0.05480527728217015
-0.009304452592952532
0.029154858293881494
0.006943285610180511
-0.12682885977278324
-0.41000080638545444
-0.6654921956386202
-0.868818187205732
-0.6415700391321509
0.19437859699572593
1.5673953573465713
2.4647471143614736
2.6024214940841888
2.0363491630908626
1.1966697857678712
0.4306980467971326
-0.0707157699062975
-0.2768083048707661
-0.27517865069713665
-0.19034967051976082
-0.21289801107103096
-0.3672056146369334
-0.5935761737468028
-0.8989316788668884
-1.142747995046654
-1.3142349036879928
-1.0501696324656893
0.07063657442795562
1.360153890986485
2.373721637712599
2.738938147887509
2.1202787218972827
1.4331291550198688
0.6485353804577132
0.10130091509015128
-0.16394763296240825
-0.16807945277200642
-0.044579943769001804
-0.016787983334936505
-0.13185546021612357
-0.38554283630914943
-0.7005724978366502
-0.9657288823250025
-1.1474650243087594
-0.9008991921469647
0.11028082846002696
1.468264406673959
2.3706138716807383
2.4600452057418636
1.9283447820199244
1.1249336426362369
0.4149752407428443
-0.1234972734567474
-0.35364446080150286
-0.3461250047310745
-0.2706883085854486
-0.248412711914521
-0.3424358677592373
-0.5936642132844643
-0.9824143139587196
-1.1876824594678252
-1.436450726764066
-1.4679977946047524
-0.8504435150529649
0.4671561199193859
1.925752292658642
2.691493363939531
2.5875683955427955
1.9648183017207725
1.103738693207372
0.3622983388200093
-0.04518987965593929
-0.258746455410204
-0.23351298461769454
-0.13843671534412869
-0.14564349012155733
-0.32707780170672374
-0.5928298437628974
-0.9101408080385993
-1.2357140845084207
-1.4882332842504187
-1.427443134536178
-0.5259760471762064
0.7892782160907951
2.118507928540935
2.63851595549077
2.349268723805954
1.632654518612878
0.7828118579985234
0.14033356053060098
-0.3544477850199297
-0.5086128426534567
-0.3997640536466109
-0.2915892984270716
-0.3109043422797093
-0.45229882833315116
-0.6789555930403981
-0.9697791662917473
-1.267457435315933
-1.575068679284838
-1.5227239635198857
-0.7587326955604744
0.5196720114844664
2.093818992145696
2.6580105617794585
2.4272443222291287
1.7047656643495597
1.0705276376559976
0.16221254197071763
-0.2483395843411382
-0.4551546890227471
-0.3780556961889551
-0.2537143514858868
-0.21455370018704728
-0.36259072127770064
-0.6804623281883347
-0.9155202218985962
-1.319653177432148
-1.5844885189966136
-1.731654230195928
-1.3869968100908447
-0.23949691878924195
0.9006821063880429
2.3641398632657435
2.577860702797126
2.1341231973524586
1.2836366106804844
0.5249434419107764
-0.08766172444759845
-0.5815708148825808
-0.7099072024614903
-0.6089584122019959
-0.48040224258393227
-0.4894971281453443
-0.6078247494556355
-0.8686553366015684
-1.1491483996948313
-1.4292228876896325
-1.7037349507737227
-1.7448301054727788
-1.201662275865478
0.06552973714712645
1.3223206367021625
2.4665073861994666
2.53702296361112
1.8835086461020367
1.1430459144569403
0.3378329870553042
-0.3459522811785868
-0.6963826610855011
-0.7369545194840723
-0.5965506981405939
-0.4938828014032252
-0.5713625290705422
-0.648842256737876
-1.10441527418486
-0.8854404329062746
-0.3738765866013902
0.13768725970327278
0.7845150191946209
1.4558358226314505
2.12715662606828
2.5753937343607145
1.8259821131704332
1.2788475677987816
0.7453017308005989
0.21175589380230098
-0.20653226623420864
-0.57341469158834
-0.5275224329489687
-0.3120112677971712
-0.20770840762245804
-0.2793087151404184
-0.42002469538513937
-0.6708474113355256
-0.9845226077548574
-1.0575052321014762
-0.509377219284727
0.6133287340836249
1.9226624802097638
2.7462782047489
2.6666571203965943
2.148902137132923
1.241658713812045
0.3663056797818358
-0.2482477194294483
-0.4790393932128823
-0.43133278503514166
-0.3263314021804114
-0.30074532
-0.42245190247977654
-0.6487022584678767
-0.9776715049463953
-1.2856080961805105
-1.351697842037635
-0.6241946223573662
0.758927351465098
2.0225587960262574
2.2829561671441088
1.8596338055718258
1.371665528403026
0.7847331960334296
-0.04433223086936261
-0.4002134352161112
-0.5814762679070555
-0.4049535186434672
-0.23842932850665138
-0.17490851001581084
-0.2775459379102071
-0.5137767691206511
-0.7723912016110026
-0.9645695502835934
-0.4952623329194256
0.582194078897337
2.0635119733269036
3.090253038091061
3.0589907579116766
2.5562845197123387
1.589084762087854
0.7259078809021281
0.08339793880611435
-0.16196660242147784
-0.11761750964416938
0.007907685690068531
0.0845717230340086
-0.008392591653557309
-0.20320273740234276
-0.4785880118759125
-0.5670730220993514
-0.06956543945912193
1.1501009249442617
2.4398408605500626
2.9497249164914603
2.549989934873745
1.785020826975906
0.9028284326284293
0.2142879018039682
-0.1477460325221172
-0.2223613449103534
-0.12275584668170528
-0.007279022094808435
-0.07049932567932436
-0.33038706635926407
-0.6425577425347467
-0.9334798678213524
-0.7757795737544682
0.04780031627390538
1.5058257662376202
2.650525000873611
2.9083536492612123
2.473151766983372
1.6596413440982507
0.9105075847444273
0.22904476085742628
-0.10409969208848609
-0.1572698256018437
-0.10461662668431157
-0.09039218587113104
-0.21628044484555448
-0.4359260668592304
-0.7516509943419749
-1.052708416768696
-1.13589803851534
-0.35413814563403395
0.9908654308573229
2.249468477046269
2.640877151101112
2.2661007261066954
1.5206742318412516
0.6739562093436454
-0.014863648442238059
-0.4225529042519662
-0.5150040978433519
-0.44142864520648417
-0.400909738240737
-0.4322157598655973
-0.6705166238850817
-1.013992538852463
-1.4053851050230621
-1.589219864937869
-1.2657533631200946
-0.032987086320314774
1.3281872430370072
2.3544863691073186
2.422693031935133
1.8484588577204322
0.9170437114183314
0.16872509556335974
-0.2737031684906541
-0.42189451393706784
-0.3573258838616331
-0.2648894885454657
-0.3077731749469854
-0.5000609067736786
-0.7548806687500358
-1.1072707692612886
-1.4452075758126097
-1.2722352231785967
-0.3895986269879823
1.0491061432760664
1.9842367126082137
2.277988503799062
1.7412501428213738
0.9461359021265645
0.09914729005423562
-0.5136125897327614
-0.7298282853057538
-0.7300670316735696
-0.5766313149396696
-0.5636841293078874
-0.7163194674196615
-0.9281321149540702
-1.2151305031682922
-1.509424706488874
-1.8123029569393851
-1.7571476088718454
-0.9065691690429579
0.6014375196695179
1.759303515629731
2.21550772226181
1.844385357542993
1.1487858968102422
0.28252189969514174
-0.4081215321749996
-0.7371184829224566
-0.8021683543353054
-0.6708340169713918
-0.6174657102610719
-0.696410916650228
-0.9226580386815154
-1.1820976020980964
-1.485956541673989
-1.7877243595676242
-1.8197303404386154
-1.1703734034469753
0.4070882656974724
1.1780781900345396
1.8289353790182394
1.5997968017198148
0.9206097554957272
0.04736038035983789
-0.5861848447681834
-0.9276232260000548
-0.995535837731855
-0.8607842938571798
-0.7781782379083825
-0.8577985732037748
-1.057771632097255
-1.2691344816541472
-1.556734011582501
-1.7800390917567062
-1.9831114544884652
-1.4791350731967088
-0.39436803147369653
0.7140855117739473
1.5739508383241612
1.5282536309576915
1.1410293256281019
0.385784412156839
-0.293059189752347
-0.6667043638992474
-0.9185692863929932
-0.8846463153063805
-0.7810690760270206
-0.7151067297694712
-0.8083899366889153
-0.9908960511866486
-1.250436245337082
-1.4855457817757767
-1.5758384272447448
-1.0799365255644124
-0.21486942769872636
0.9074260478423186
1.623491580199705
1.4873012718259977
0.9873062192768995
0.2970340213723247
-0.21356921921626543
-0.584719308528486
-0.7378476858816381
-0.6805324310278424
-0.6015896739461286
-0.609863840583842
-0.7423713845724755
-0.9718518666081386
-1.2184909430656106
-1.3632424730848938
-1.2077076308795212
-0.48370687006566354
0.5052188225126124
1.4173367772070447
1.4189829727776078
1.056319209840054
0.45098686050380943
-0.1470080444627473
-0.49943045295082267
-0.825321957654406
-0.8277289189879257
-0.7420026800033667
-0.7191369319179776
-0.8028624744421818
-0.9558672499585903
-1.1889309756545803
-1.3307757439309542
-1.4159974755238536
-0.8753643232688295
0.09451056090140231
0.9986557036605654
1.4982468509610798
1.3532427385266916
0.8222179006136605
0.10279530461850526
-0.2818515897328966
-0.5740747336991135
-0.6346508054384432
-0.5580834504048979
-0.49496309351098494
-0.5417009020277581
-0.6959625579236592
-0.9097793693130015
-1.1341741288315508
-1.171235046341462
-0.7215685235478003
0.08403072960823527
0.9958124114939799
1.4057369659647736
1.2538938636386598
0.7485439152503122
0.21906917427728612
-0.2486321714445206
-0.5981729564968475
-0.7653322426376805
-0.7418264516272698
-0.7056700087379322
-0.7431624108018056
-0.839743075765487
-1.063820914384651
-1.2706795876626549
-1.44709903808891
-1.2059636388706045
-0.49063953218769607
0.39693867991292664
1.0834059270526404
1.2788980981601064
0.9596380038644574
0.3748461635646566
-0.1016630069019906
-0.5316239028892862
-0.6894012284570187
-0.7046991490264655
-0.6408646286013909
-0.63339108
-0.7268852066604138
-0.863394085802002
-1.073088909325712
-1.3316525858495734
