-0.13799763
-0.2003509059920112
-0.23302348768873882
-0.29803784236364345
-0.33459286772739116
-0.3064954302140863
-0.029749987426056043
0.3185931268761306
0.8494572410581631
1.0796310851368776
1.1236462044048894
1.0875560934948987
1.4391143132290438
1.6343785020507626
1.2577642979399144
1.0789759041133702
1.0065852780136106
0.8181033477683884
0.6208607177825455
0.3794295397638177
0.15708689547667523
-0.03249498028904438
-0.11863982420757052
-0.23719979209627698
-0.2881273816515323
-0.3840183905060876
-0.492389196532997
-0.5200498860240697
-0.4123835983459492
0.30884175280956067
1.1370794810293168
1.7931406456505463
1.977391585703349
1.8460950691048719
1.6047774745999686
1.267089137819385
1.0582592520039544
0.8835704116386308
0.7752727239212404
0.6799464621035782
0.5268740913260683
0.2840969573362987
0.10043927449644074
-0.07603631478712852
-0.2140256432482663
-0.3145130504548463
-0.4193250532545498
-0.5085943286010592
-0.5430022572181135
-0.39698230265714335
0.018384779740592883
0.907331235298055
1.5228777212332605
1.7674196568206881
1.706875812834273
1.5405867564002598
1.26233526645981
0.9921371443305207
0.7679678976376446
0.6435318416360676
0.5520464476558519
0.40542200871585865
0.21526473511604838
0.0006535292012522578
-0.18527617960193474
-0.31486098452931127
-0.4447659552436724
-0.544355192181298
-0.6124315594941292
-0.6913715233336494
-0.7631385477429802
-0.721335199821507
-0.31867823993854105
0.472056804763597
1.237182340293347
1.673802804057266
1.758035253434659
1.6350283098076148
1.417394143753783
1.13537479323111
0.8732491921548728
0.6948573135107262
0.5725971541983492
0.4405132868314082
0.27692004778846224
0.07666823119323571
-0.09128998780674703
-0.2897624795092066
-0.4499983379855687
-0.570683855864562
-0.6615533548706861
-0.764099479616533
-0.8762635459918213
-0.9753828778396622
-0.7250732122059964
-0.2652040312896141
0.509603935050988
0.9725944541093041
1.1505620486094468
1.0914602736699224
0.9248261607847458
0.7205981698054965
0.4304705635900892
0.24098382224854756
0.12369178210927566
0.0669276171033677
-0.015200954559687233
-0.19914275090967393
-0.3774069609860533
-0.5518785497863987
-0.7085704227346608
-0.8321478376044807
-0.9313813269527729
-0.9827075269795988
-1.0180869633363137
-1.1173003233095757
-1.1949728606505132
-1.1369679025957886
-0.7094001794635872
-0.09727778232460119
0.4833340500584375
0.7530827805750211
0.6795575700035351
0.5054095104466206
0.30982018342279244
0.081984625948441
-0.042776437457811456
-0.10625257
-0.12633159914381448
-0.20411429762551067
-0.3629331453267792
-0.5102395224069547
-0.7128509972450601
-0.8179611810806863
-0.935198989993879
-0.9894843189279038
-1.069186133111479
-1.1132538005801849
-1.1752116273414284
-1.0378758715169663
-0.6360219737666929
0.08207050582309817
0.43708912080740747
0.5683279112121498
0.875993752386087
0.574161066108591
0.12102961085526776
-0.24220005136359934
-0.5345298805198404
-0.6676549938874633
-0.7198611994949282
-0.8561064897632849
-1.1267755912059263
-1.4528488417780643
-1.8101524374742584
-2.046966294978902
-2.224795590150207
-2.3403849185614622
-2.4299908
-2.4299908
-2.4299908
-2.3269582742354324
-1.709109912881665
-0.5184485943026443
0.6943059298306671
1.379058769869767
1.3397345756823458
1.0955093827722555
0.7810114782764488
0.4008920726025367
-0.0035149438822327933
-0.23415015849905102
-0.351788596492952
-0.45516637712553687
-0.6724349329907668
-0.9656802158764589
-1.2763483283568016
-1.5456627051262977
-1.7694982622788888
-1.953934196062903
-2.096372275710195
-2.196823250285856
-2.283098149410057
-2.324200793187841
-1.93810935649294
-0.7823413974362089
0.5232072301264455
1.3613392478110842
1.4902326596335116
1.2438200604633352
0.9184978901836081
0.5003109546430198
0.11439860966762087
-0.1355529730820949
-0.29805635346591414
-0.385200885311828
-0.5478810252464554
-0.804346057621007
-1.0778263986611862
-1.3738425001691321
-1.6592919025863304
-1.8422645781381761
-1.9554651924013646
-2.0546303332963003
-2.184927704050667
-2.3653302357871406
-2.3007066303942
-1.6517800786437882
-0.4548543457420876
0.8752768099097358
1.3413221000000002
1.2168864739549388
0.8690462795479843
0.4899356096964109
0.1318506017399177
-0.141207198556466
-0.2814102298275323
-0.29672292
-0.34952861679997665
-0.5628113820921958
-0.8795266484243549
-1.1696753227617112
-1.396934569044446
-1.604912018295771
-1.7840427996382255
-1.893196774696071
-1.9675906030314732
-1.8391284193764506
-1.1794285450607496
-0.04986481994914538
0.9074060611746335
1.3569168685068949
1.3101918130164247
0.9530912359335035
0.4992240130411246
0.10595400793246279
-0.1215988514702892
-0.218513790139428
-0.27357691419685454
-0.3919551789229579
-0.5958802026412472
-0.9210725785610776
-1.2950588448300915
-1.6193752300973687
-1.942257880048586
-2.1845069192466604
-2.3273089574327237
-2.3300993122589113
-2.105849391626414
-1.2852988094273385
-0.09147530609586729
1.11970686453441
1.4964632436079262
1.325697570277479
1.027177608821297
0.7049365265951523
0.3143599866271408
0.0411320082763064
-0.04802848128242961
-0.11426486478858736
-0.2607220516835512
-0.48477986973382015
-0.7823612077787884
-1.12034667817552
-1.3369907318179453
-1.5045841286048653
-1.6747184784997857
-1.8329337176888438
-1.7586259690104808
-1.031176409095859
0.11375996729769922
1.330881172408524
2.0145567914612545
1.9595799006070849
1.6704038922911502
1.277438308645261
0.9047339603886613
0.5240418993414733
0.2658047667306505
0.17460350784617754
0.05145450617128601
-0.2061336087637322
-0.5341757871130207
-0.8699779071553236
-1.1381925797243915
-1.3674847727178476
-1.5965715388175057
-1.768581716368014
-1.8375712076565462
-1.423767956203338
-0.4578663218527903
0.6667655282392005
1.4536122334186699
1.592649770857368
1.3110562438164832
0.8906414468515668
0.45505573972602675
0.11161518266048967
-0.0960011097963749
-0.17209913944251926
-0.2686197373764165
-0.4686544705155127
-0.7246362619978467
-1.0270540926113303
-1.2930512984838824
-1.4957293569031382
-1.6828285298945467
-1.8216322884600664
-1.8171404635200352
-1.3051209533766301
-0.3891511856234522
0.6732545016263481
1.2751796844150982
1.332126719551635
1.0519720066529918
0.5913410920443603
0.17147275743050414
-0.125385663104975
-0.26582872380949657
-0.3265525527101039
-0.4356190257513204
-0.6750570990206157
-0.9609721536957997
-1.2630978690585413
-1.4791458316699055
-1.6835839676812319
-1.8569512668349777
-1.9335481919378397
-1.8075864445509078
-0.9523994170198735
0.1049113694998533
1.324845282120844
1.6883127705939112
1.5531103368357992
1.2192514186833323
0.8251746274579802
0.4196340917240866
0.10933707085941485
-0.05410530937965942
-0.13481316328478846
-0.2871471547527545
-0.5385382056935939
-0.8583908008912987
-1.153579267631499
-1.377483116040382
-1.5561863960826952
-1.6966855948369717
-1.7764073672624772
-1.4372905935359432
-0.47503000097713277
0.6952785391088421
1.539116410130035
1.810805929600781
1.595898959951318
1.2092740241332443
0.7539762914747544
0.33589130926872957
0.09872050666205859
0.01722600264866982
-0.0770522896492669
-0.25183410822212204
-0.48172023376988826
-0.7745318473506596
-1.0452049309777314
-1.3173432075407732
-1.5226964863601757
-1.6987062812840876
-1.8264758473294676
-1.689279017910235
-0.899710208299741
0.3526953767475698
1.4718714611434458
1.8071071889075452
1.6766111204746692
1.365007456866664
0.9856170325306488
0.5339706002229057
0.21167337340143053
0.09356178666939498
0.035710815525783694
-0.05194762979294629
-0.28292331950928185
-0.569113019105365
-0.8574907640414724
-1.1127049449170818
-1.289372544327201
-1.4695248399260514
-1.6088873941199353
-1.5506575169553527
-1.141259794834098
0.2447475286263875
1.5480319492112913
1.6083747366554761
1.3461431142371043
0.970245487973799
0.5601709436268173
0.23782661328997248
0.07242733257335232
0.020727656
-0.018299036594613082
-0.1769356220014202
-0.40435128952734434
-0.6539686728076525
-0.9018229842130072
-1.0861972013357968
-1.2531339983163152
-1.3960002432198546
-1.5335840502653202
-1.262464577436348
-0.47167486838152706
0.6701497066171155
1.7216426118279906
2.1040366192725823
1.9282525452192307
1.6301351879425574
1.2158038826708903
0.7753699236084832
0.526379424354662
0.37807738170280647
0.29052829742165603
0.11722880350991124
-0.11961809717766952
-0.4690708427944913
-0.699612101831363
-0.9130665687078794
-1.081454796519766
-1.2549283815864931
-1.3893869607147946
-1.2107174160099339
-0.40879978580569987
0.8300248652272089
2.005269579932663
2.379024952525959
2.2658003378353917
1.991545827033912
1.5829425104113102
1.1512797649481754
0.8276522080949837
0.648916720407844
0.5146522258744162
0.29053399551852044
0.053743810355496496
-0.23013657366716989
-0.5765397022053299
-0.8350713590781745
-1.0159438891228103
-1.2369783866676698
-1.4213213882639577
-1.4312657297051214
-0.8453490741072182
0.05879997167082962
1.2299728317220093
2.170637615741689
2.185585317923033
1.922381653351157
1.5413559306704046
1.1205308655577852
0.7072177017701742
0.44676923791063855
0.3731657996853667
0.2591791896887063
0.019586067178479577
-0.2641958331523286
-0.6051839190329484
-0.8673991148958777
-1.1186028136460981
-1.3720556243315039
-1.5645161699768575
-1.4935512780284692
-0.7904933943110721
0.34487860444252305
1.4854313577953495
1.8885819463328373
1.7064985797734615
1.3299741479082563
0.8732278543346967
0.43546404678428674
0.15376034949025869
0.08739682672292368
0.05029619185558276
-0.0984458044486055
-0.3696266688893497
-0.6284437229896336
-1.0180574032790328
-1.344970222081636
-1.5535230384762853
-1.7092405511582034
-1.7864608741036374
-1.32186161983869
-0.1640458737553847
1.1017537718412143
2.122763262932423
2.2765966047112647
2.036367583650457
1.532313196002621
1.0276854892827572
0.6261345755225214
0.44441130562680514
0.32764444396224646
0.1708840850625973
-0.007937400227519348
-0.38550623449161525
-0.7527724029880167
-1.069200639682857
-1.2767346946274585
-1.4978376835635037
-1.7107530583557178
-1.3162850746106567
-0.08184581503717703
1.3571632368776614
2.2208911246166667
2.5071839493729344
2.317868216951207
1.922606243458696
1.4851316207413334
0.9187251052518918
0.6313987042986047
0.46862488164916744
0.3385078282258315
0.08712620845370664
-0.2670527840387087
-0.5964931810226348
-0.9350472431811448
-1.2767064761859697
-1.5362476748379992
-1.8342290935137542
-1.4800476816804746
-0.35486153521142033
0.7404952713128609
2.01096831717731
2.140399765060671
1.7879454925993423
1.3343074883440873
0.8410940415209417
0.4497073536352485
0.11531083116766958
0.04094306865454546
-0.040768381892918225
-0.30024777285753107
-0.5526300645436961
-0.9964383902951621
-1.3214598636059312
-1.624971179695828
-1.848448744642962
-1.8945733387301555
-1.3726653788140815
-0.3597711196703104
0.9091003296919464
1.5998418025589567
1.6081633775384379
1.1991413774877842
0.6813131193482215
0.18664383172457755
-0.09449808093149488
-0.18872080538706842
-0.2335698158396763
-0.3329759144813618
-0.6320349068922306
-0.9595551081244637
-1.2500186464409728
-1.5209090344389529
-1.7852481754125344
-1.9782037874500218
-1.6141735581886163
-0.5369786714713527
0.7100144615099115
1.6051303475478964
1.7396114978137767
1.3963099548600495
0.8846489704633915
0.40303373542335624
0.03522880501682721
-0.11788311897711305
-0.18703739941062775
-0.32751280363385227
-0.5651800716431868
-0.8169448216846905
-1.1237755520646417
-1.4021545802411284
-1.6077308548327973
-1.7773435575673515
-1.4680810647121354
-0.3972726994416933
0.8854945753006326
1.993134239690016
2.27428786792294
2.1445394909128646
1.7619687080638975
1.260119976736743
0.7707478369570686
0.43610550697896044
0.2861559259054586
0.1599065536676934
-0.026234288124124837
-0.3349946272080573
-0.6900426624753219
-0.9920494880918685
-1.2686776327149683
-1.5123631842131995
-1.5402166947036513
-0.9925464278233319
0.14479944295848685
1.4781904517830031
2.2218594585000266
2.2753075739886177
1.9918501649150309
1.5857341653744712
1.053822105856234
0.6075039725311461
0.2918828361174003
0.14176682566681087
-0.022027741051718112
-0.2827270704475755
-0.6360001089512476
-0.9369828243806565
-1.2094736312398942
-1.4447291236720794
-1.6597645036333146
-1.7118195996989445
-1.1024937591614057
0.11571352482411049
1.30807685188458
1.8788037370841895
1.8415195511405993
1.4988644011718761
1.010813014613625
0.4222330781670491
0.07991918634875245
-0.03443138476424926
-0.08626933862568334
-0.2692469042524456
-0.5438634776022918
-0.8472732890981332
-1.155812493759381
-1.4433641136478925
-1.683522136308603
-1.8091774110326635
-1.6665429762799648
-0.9052661961229838
0.43682605285461273
1.3126742974756935
1.6331286641292697
1.4433736319435158
1.0726562985253025
0.5297265864886522
0.16741411396969347
-0.05053591943598082
-0.20467329788546168
-0.25514975145251434
-0.44540299036935804
-0.714267713278856
-1.0071423534733963
-1.2836655846969283
-1.5848236719553546
-1.7432910891135565
-1.792080896205013
-1.171589792080797
-0.00826687890212563
1.4337942257745588
2.0028034020980217
2.059686362796741
1.6942614945980436
1.3150897431674096
0.7694851160446964
0.18834128860748223
0.08292601497943976
0.000472354667278109
-0.10294282338099409
-0.37379982532670375
-0.6581915718821056
-1.053688847893934
-1.29589441599477
-1.571675528233689
-1.72372367552179
-1.6788994864597016
-0.9293025045970944
0.3486667959188195
1.5624300192839904
2.225490440831439
2.194000553572995
1.847400098925812
1.3380181802432016
0.8328452112772854
0.42545128184543995
0.16614825230026434
0.03072656337631703
-0.06790276807014543
-0.386356682246273
-0.7205960722250597
-1.061075648029997
-1.3702525292011203
-1.614161214948962
-1.8598890194147968
-1.9879546025995478
-1.5196498123573687
-0.5090225726456437
1.0546036047795413
1.9477737508967243
2.0189877340660214
1.6875965353559423
1.184285926242281
0.6476042080611946
0.20112878312311366
-0.03371889657123977
-0.10935314181540016
-0.24683924438055693
-0.4560900936110515
-0.7917475528494821
-1.1152412490814314
-1.4146008190628405
-1.6544702557566981
-1.9489368284924635
-2.054908961716206
-1.677498007750895
-0.41223079436779003
0.9410172368722416
1.805674670971403
1.908403974581483
1.5008652915437315
0.9978983056291281
0.45937094670062556
0.01566457838042997
-0.16503325623569326
-0.24173529937647042
-0.3165297467379809
-0.5356560185673456
-0.8849261344639618
-1.2003131724016085
-1.464887997305266
-1.7522962903884791
-1.9351411107814913
-1.9675691488323341
-1.4149354623539125
-0.21252762326083352
1.4207140269221203
2.4786512418261037
2.537096518171795
2.0678867338491234
1.5073626308933363
0.9288191714121843
0.49021095726049
0.20242929470464874
0.08418762395663029
-0.09102669196568766
-0.35425171390122573
-0.6931471697131072
-0.9935546499481812
-1.3188794724082566
-1.642509080367156
-1.8604360512901836
-1.589086510126262
-0.4019653159147485
1.1324440779434424
2.37175781098831
2.9154933729117514
2.703353031304358
2.0592930282537774
1.392378048736221
0.821126475456794
0.4036930748744286
0.16347598605642463
0.013172673453253313
-0.16370560560466133
-0.5044047906822742
-0.923289752987182
-1.2533454790394147
-1.673830278403821
-1.9338895850777462
-2.0504408514380845
-1.6122298846906356
-0.10699279229458947
1.4282668109691041
2.3980773647778433
2.574233809056522
2.156703762152042
1.5339244542368315
0.8180486363888217
0.22618611872837974
-0.06218930102141888
-0.1883632725424975
-0.3338825327206704
-0.5358872922386225
-0.8435918907341022
-1.2250368280879882
-1.562992429032288
-1.9136974397099369
-2.1715087544641367
-1.9164390226626473
-0.9239540860265323
0.48652882506431516
1.6872293454351697
2.1426212406438125
1.89636046449125
1.2589696807331108
0.507313889132661
-0.060274979781688914
-0.3310016741323518
-0.4617680010660024
-0.5209510822994524
-0.6787105901673046
-0.9558956349591021
-1.280440189175707
-1.5692644418200108
-1.8462634280547423
-2.1184937550400758
-1.9362412040144121
-0.9851997759063806
0.5783520987184957
1.9384639687915017
2.6233524574673295
2.432235746551605
1.838884942365967
1.0703490951348464
0.4241352217175023
0.07938496878583022
-0.11033633547847901
-0.2367974042788748
-0.40804906648184047
-0.6880101541540032
-1.0274364680921817
-1.369120194418238
-1.6828663230886933
-1.8861234125832393
-1.5952778143938762
-0.5990766854739964
0.9905472731903595
2.4070327666707056
2.990215285075686
2.8575214921501075
2.3680248732029914
1.7242124193321655
1.0141891297982413
0.44532212520225634
0.1586960067821841
0.04182472182231991
-0.11897233918185365
-0.37407330681470574
-0.7271715046626469
-1.1282039840368634
-1.4961219788316353
-1.7306640479545743
-1.6217362689964745
-0.5361467639066071
1.0129977175306366
2.4591635586755345
2.8333664992429677
2.6116781992015667
2.101357333928969
1.4326602697061068
0.657555290054761
0.17559240783385283
0.008238221751620776
-0.0903106260371254
-0.27692301700795674
-0.5745849362802223
-0.9737507169926142
-1.3435159479603072
-1.677033702378518
-1.9575059502298175
-1.8491339358447858
-0.9861942423668297
0.6378255885850431
1.9861340370993763
2.405667698518227
1.9737390887208697
1.4996137231820672
0.9836594475666743
0.10228006799923628
0.01881685680546033
-0.06464635438832472
-0.14810956558209162
-0.26947058644797395
-0.5867875464563795
-0.8594413531757678
-1.2721693788423
-1.5755181640969755
-1.9803002178055233
-1.8590725186101245
-0.4487028640356774
1.1580960690517736
2.5161239097892287
3.0382192320337045
2.841597847818789
2.244381170834764
1.4366408674895519
0.7771952072305954
0.3597564947200481
0.13441106746994966
0.024175195240903655
-0.17431798882362484
-0.5201892037570847
-0.9017905085507976
-1.279643614104323
-1.5714097189032095
-1.801461869155669
-1.5177940031256438
-0.31969325278236727
1.2443099568292249
3.2991050521884966
3.506462470855151
2.6717892796057434
1.6792974292088643
0.9790192633973157
0.601007842971942
0.37386378204449
0.22010804865636602
0.10433340314012066
-0.000836641055455549
-0.11343974997811845
-0.3116349524477218
-0.54421622428056
-0.7079224529569326
-0.85384913933378
-0.7554504144687086
-0.33772946205150794
0.38302299520079497
1.2879058621687727
1.5749167677722402
1.4796383469731804
1.244500437826398
0.8329689734524705
0.43410759925955245
0.19278827914275753
0.0438386322884691
0.020727656
-0.07151958445188239
-0.27770400678417073
-0.43426073314323926
-0.6400576697700732
-0.7876257897852593
-0.9767879015064954
-0.9999758303787257
-0.6592934832365142
0.12861694171519228
0.9412379293814024
1.3919023213212425
1.3842534654077088
1.1020333081267697
0.7152915607247943
0.33075232897867896
0.10910921472197907
-0.00487243180809949
-0.03789984306384243
-0.11018640010450466
-0.24770865132433773
-0.4061655218560815
-0.5865264596658608
-0.777394462625684
-0.9597907387758314
-1.0648175238974058
-0.8496103510949976
-0.2734204271357267
0.4744013915740195
1.2388019998996775
1.484602380953942
1.3002349599202199
0.9270610315078822
0.5528703304745003
0.22206273609445537
0.05388590763813796
0.020727656
-0.04966043172629529
-0.15783904963956696
-0.3268325830414304
-0.5206251609019454
-0.7168053662052601
-0.915556422995078
-1.0511166066270088
-1.0138825453471005
-0.4542379309187724
0.3929197643775779
1.1890391292538145
1.6069400053934464
1.5939729114055117
1.3028726081264916
0.95566971780857
0.5834307226798645
0.2658418411291919
0.11034205928283004
0.039427046878239724
-0.03165700059741064
-0.18194867009275903
-0.3610433326196838
-0.5837858244446954
-0.7840088349127998
-0.9299083124655492
-1.0317412815180655
-0.9210145963306166
-0.47050201568910843
0.32423930091487385
1.097718628802761
1.4490203251615537
1.3870563883161742
1.0951662215057503
0.7462085236990097
0.40351142299971887
0.07964628521039846
-0.016888821403522537
-0.061828283146959706
-0.18032736838255767
-0.3629327413299046
-0.5969048298507794
-0.7978306125834767
-0.9659367493124011
-1.1257429040343927
-1.280969368204355
-1.2258781374121674
-0.7418817849334727
0.124220205303472
0.8838598959093424
1.2069158784905196
1.127071426432329
0.8540723180618107
0.4564968087214904
0.1623327708176972
-0.0374210866838597
-0.10045043715120311
-0.15919886973429992
-0.1946475921596038
-0.32863774349087616
-0.4996256443550514
-0.6873122735978858
-0.8722335635870211
-1.0399211533656938
-1.1033349377632622
-0.9543467756995596
-0.3572611315776921
0.5126474877490121
1.0875497458902676
1.36017549528959
1.2407299624830748
0.9424958247740347
0.5703989055554142
0.2402000376022704
0.05175459314336492
-0.03407160911711694
-0.042762459
-0.15489745293119153
-0.3383639958676068
-0.4926775903768547
-0.7041667050330761
-0.8644226478552824
-0.9923007873689212
-1.0362871745761315
-0.7596833798588596
-0.07094750409076722
0.9865912678508248
1.526559113310811
1.597077512426506
1.3992419794359823
1.1257614476741284
0.7278158549426552
0.37145473229115533
0.16473474219384102
0.0942240369705356
0.01349638359981789
-0.09342039453312845
-0.28819635534443044
-0.5049120396882294
-0.6767669255253039
-0.852650212299475
-1.03674210285127
-1.0936697822652859
-0.7050013673423463
0.09998197073429771
0.9509718974756528
1.4050749394384527
1.4103348526002009
1.1682869336342507
0.7434285225127708
0.36358220893613047
0.11785577455934296
0.008775844190168441
-0.06172834614866561
-0.1669583064128211
-0.31492555146826406
-0.4840684266039996
-0.6862075804245261
-0.8335121543109337
-1.0459994721733676
-1.2335850763973013
-1.0670705789779424
-0.4649734542912348
0.4287734249329849
1.0645414032943221
1.2667166460818762
1.0504123963405543
0.7005062251632564
0.3220955001269132
0.05232729909992506
-0.07583718274771437
-0.10484355463817666
-0.15426176629943117
-0.22579495033747288
-0.4062395008199843
-0.6033571789302699
-0.7752499757778886
-0.9659545335946397
-1.104602924213987
-1.0043321155241014
-0.3935148307465649
0.3312529572672588
1.0470953315633627
1.4541463792436815
1.3433500523764879
0.9920150404659787
0.6075062326825735
0.24490808644464934
0.045390890378023685
0.021284468731778868
-0.041287857252576055
-0.14822866405367732
-0.3095077673634061
-0.4912230192854781
-0.6463789547122074
-0.8274399020820643
-0.9930404404014961
-0.9089156285098157
-0.23740662096905676
0.5462095163419676
1.3235267472997543
1.624774156773519
1.5605621578114552
1.25314092379674
0.8614005415603779
0.5218507898873013
0.2549047993437907
0.09744525338713042
0.04368745046941371
-0.03722746865801307
-0.2018754834725785
-0.4268876835486591
-0.6638301166047724
-0.8592226559488122
-1.0577676950078183
-1.04054907407598
-0.5795751656015984
0.17585557922631226
0.8911266882257135
1.3910089791007816
1.3127347013027564
1.0862372186604385
0.6588323522511685
0.35348240131017766
0.09733204503777021
-0.03043172677729948
-0.04616605221448444
-0.09522075732027283
-0.2710562287771905
-0.4581605257220684
-0.6663227101588947
-0.860677722693019
-0.9981919493414781
-1.1089714983579235
-0.8471616532250584
-0.21876805108612915
0.5117763580777136
1.1217289849769234
1.1664659033374374
0.9164658501848726
0.605022826142141
0.26473358415616005
0.02913962121691833
-0.09129842385951009
-0.10836561512756687
-0.16208299399952303
-0.2920295309760318
-0.4175284620691635
-0.5981149910373189
-0.7619279062028215
-0.956085662463323
-1.0509665465667337
-0.7763011126410081
-0.13246332237917557
0.5892298168148906
1.1562967544080034
1.2333210293924797
1.0618037338607698
0.7130233911788366
0.37296569402877616
0.06446905592183329
-0.023336173349460206
-0.08404921254223346
-0.11511342335927319
-0.22982868114758356
-0.401714255703745
-0.554636681435673
-0.7698324975800975
-0.9229727111402924
-1.0187826028937774
-0.74170853116295
-0.025254793372188097
0.6933178148316443
1.2565347702210603
1.3196255540302984
1.1190390126447685
0.813262885935864
0.4983085204705408
0.18210036978681518
0.04007135465386793
-0.025423631751158207
-0.09175712566893755
-0.2264456027969699
-0.4185601701006203
-0.6066726374014944
-0.8054236941912606
-1.0003462397609126
-1.1450456867957761
-0.9279984894316767
-0.33623597448186676
0.3007032883227726
0.9163604445030917
1.1279308387199
0.9203141752941986
0.6156302582482369
0.2751186244648825
0.028567189496704854
-0.08432063521103463
-0.11417116660371782
-0.1537249092392825
-0.23917928728801383
-0.4313098660263736
-0.5971054226890559
-0.7770822955072351
-0.9914934389818055
-1.0780499934317445
-0.8628211936344906
-0.24231939581738063
0.43982637983794076
1.0283256050240348
1.1357005051770659
0.9808271680260877
0.6765795743094059
0.410982069693658
0.12179068242515438
0.028717021693062172
0.012511331597671803
-0.029535557697964402
-0.17631980959078247
-0.30885252071828617
-0.49136364880070393
-0.6529704121487956
-0.7972136191744802
-0.816059428305275
-0.5384389138109208
0.27516143087685857
0.9729356527407238
1.374892485424854
1.369798451052242
1.1540093037095953
0.8513200808949419
0.5551747002852101
0.2790820458280114
0.14446133094332997
0.07095212611894487
0.018453148190660556
-0.06084536687447541
-0.2643962521515349
-0.39901064939315506
-0.5778487404964484
-0.7815913976819702
-0.6952362672884091
-0.11093474196489964
0.5603267731760295
1.1625212901644122
1.5030045968478773
1.4406969949586423
1.1511648510646584
0.8340422181906069
0.4505621442568708
0.23404175712112624
0.13098826199035551
0.06958007042218903
-0.008745346251628365
-0.17202483242154948
-0.4104823185145287
-0.5995436548868873
-0.8041803984255557
-0.9025029065721095
-0.8670933072404979
-0.44857730308868293
0.1491479182579267
0.9835182301624688
1.2295969673471419
1.1966882631002442
0.9445584350211131
0.6026552554674857
0.3091541127793108
0.09501524277244885
0.017053720185427428
-0.016387157542394677
-0.11439223347067413
-0.27440387654684967
-0.43590250759599236
-0.6361170524615133
-0.8331845374705804
-0.9618333214786552
-0.9863547551153584
-0.6338973951563717
0.013442421399634641
0.70333586336817
1.0407298894639518
1.0005811584451298
0.7533836971556527
0.44421239373720595
0.17368363730801306
-0.015562562601456779
-0.0812030992028755
-0.1317025196371785
-0.22123752030528404
-0.36760711190183043
-0.5517628964691921
-0.7210749135325398
-0.8690365188287514
-1.0007642531744154
-0.9664638690645807
-0.6493798585979436
0.1521958160672569
0.7394794909455151
1.0463892767045657
1.0118176975200008
0.8089272709239351
0.5377294004738773
0.20543106874357148
-0.003661267259047956
-0.07757968333733709
-0.14868757545355607
-0.2336631161097868
-0.37545737982319055
-0.5558660183206809
-0.7142801340015802
-0.864006056839619
-1.006356945921186
-1.0394381110628466
-0.7893893066215091
-0.2203795146140824
0.454328334035861
0.9639723916277907
1.033952398627434
0.8980425019404552
0.6428358043649989
0.33403294385102344
0.08954607445369844
-0.05348627250658433
-0.13432179771540015
-0.2159022465994316
-0.3533019973630313
-0.5094064278826078
-0.6790115462034201
-0.8702151029650963
-1.04002369832604
-1.1717480195272036
-1.2438818155035196
-1.0874120850215623
-0.596706116897842
0.08426719020243906
0.6213428412441339
0.8009091283524653
0.675954463102556
0.42252333073400833
0.14466125698886906
-0.06546011094553644
-0.22560516459078717
-0.28801797560777875
-0.3119298202870465
-0.4270276503870286
-0.5648107350806766
-0.7415672590932062
-0.9302910592384805
-1.0429179272515081
-1.1650476971422983
-1.1776723985586166
-0.8352698198680449
-0.1792824396507376
0.44780079141214624
0.728455638034935
0.6918671431506188
0.4759620728017059
0.20229418087502898
-0.05584562870233985
-0.20738575929379563
-0.28821938759936644
-0.29672292
-0.3485481400638138
-0.4724292285976609
-0.6303031414092571
-0.8038903872290053
-0.9820879290843884
-1.1347528954495414
-1.068976262610987
-0.6963250689003189
0.029313207961752352
0.6082811773749888
0.9105481402085159
0.8914221958991735
0.6633078880279103
0.3705389050714922
0.10525289361335347
-0.04407960269087363
-0.1397943176316206
-0.20007970466057426
-0.2827860349331739
-0.39432208271930136
-0.5592170404580561
-0.7295001789216213
-0.8873818620537567
-1.038077085013025
-1.0413973319338081
-0.7276012967914594
-0.053174569887350975
0.6042661624062418
1.0094560421423058
1.0463957209318109
0.8675009404683822
0.6024227566797098
0.3195827429951912
0.10737297180024089
-0.03111958358307722
-0.1139527715685778
-0.1826267010871292
-0.2816062740842399
-0.44296929856832246
-0.6273391710973764
-0.8150379090519544
-0.9757623924409853
-1.1001885150687365
-1.1334382149765718
-0.835607234717509
-0.22203510209039928
0.45337831505492543
0.8720816191118242
0.898015495875423
0.6811752114792584
0.3612025778677147
0.10206960142028065
-0.10623420225995389
-0.219008416381685
-0.26713729341528175
-0.33153854254411125
-0.4579102644405749
-0.6136021499762392
-0.7901758127788742
-0.9718407203367888
-1.1055292305544924
-1.2311974916178545
-1.1981162008042856
-0.784985874802804
-0.10391132166700506
0.5181994991417403
0.7388187885855964
0.6582660109366366
0.40981404513919495
0.1181260415567561
-0.11507550983151957
-0.260596127701243
-0.29672292
-0.29672292
-0.3559251629344383
-0.47120820150755793
-0.6184969692024551
-0.7825698117824289
-0.9415314016842051
-1.0714621568418883
-1.0134894747618695
-0.5689461349787914
0.1290766718576306
0.7511634663572987
1.0517845870182685
1.0263506737824204
0.7673447678982375
0.45557840758006785
0.17106227349669625
0.015364007958882785
-0.032777938093795436
-0.06613181531619736
-0.12643141787687232
-0.2504987817022568
-0.4366571261814558
-0.5863124754220527
-0.7522696214722875
-0.8776276946697212
-0.8278996345522347
-0.38026766390843914
0.30682742583485334
0.9705721434748484
1.3522488777684998
1.3425135360753773
1.1213567437783887
0.8346767948546745
0.5583483130128946
0.3360949507884819
0.18977425286012292
0.13745399435356023
0.08586279349572216
-0.010860930257035356
-0.16541668347016547
-0.3931028394839061
-0.5905251326151122
-0.771428759842198
-0.7813465440292606
-0.3844478168964114
0.26652133267291134
1.0280515923250682
1.4286235884848542
1.4016708406356986
1.1312096691591853
0.7547844457236095
0.41973593108330065
0.21224068022755288
0.11623706157362954
0.05899213390628169
-0.0004719317987478683
-0.10002033068394628
-0.2614028816548422
-0.47370457427346646
-0.6849556451419522
-0.8374501851886852
-0.8831585507377424
-0.5162693329567485
0.2758738107678031
1.0555495143426832
1.3944196582659192
1.3091524576648026
0.9735740901532444
0.6674001224620101
0.3201180502909634
0.12348731344770593
0.084217772
0.06639487873307
0.010912603996660719
-0.10375513000545633
-0.2649039627551759
-0.4591098113706714
-0.632834730161179
-0.7746797946009927
-0.6149930932819357
-0.0027842758122177402
0.7588845467550988
1.4002853650475844
1.6373915108862953
1.4411787136111398
1.158705183271994
0.7762108296522792
0.43064754726060794
0.24785770822249714
0.16342695961801312
0.09975488724110818
0.011922577070079224
-0.1449367354063712
-0.36160994017140424
-0.5504206407086898
-0.6956435492790626
-0.74115373
-0.42959793343367836
0.32362561911559684
1.17163010689664
1.611561769924903
1.654565040822452
1.429284694654218
1.0894089835824152
0.7064039821077832
0.402771172041811
0.258020819543344
0.15876528420817188
0.05615835497903118
-0.04746312315757692
-0.22011638409290743
-0.4394957395046247
-0.6920841415438437
-0.8987401332126307
-0.9043452403834716
-0.44004071755679397
0.39237229437307414
1.1683705229404688
1.4857684030684704
1.445600667783478
1.1622664127381337
0.7983926243615086
0.42314977418841104
0.1433143117551467
0.03792830501374666
0.0011115877924488364
-0.08682653920968582
-0.2577580030638929
-0.44578651247598244
-0.6526117915496278
-0.8310405028966694
-1.026682857598321
-0.9588242069364216
-0.38929772948917857
0.292427871390176
1.0448775463430224
1.3395681848230334
1.2547327106054709
0.9480724161907284
0.5937878223429924
0.1926008596585435
0.03531433872127002
0.020727656
-0.031561647678253105
-0.14406452070054843
-0.31592397339284195
-0.502718319457435
-0.6943779187522554
-0.8780404651779726
-1.0160131851500696
-0.8140749084495631
-0.27898895563144765
0.49941546082347266
1.3077218156875947
1.5138622792635927
1.3857212365931568
1.0360508073567618
0.6700553376276641
0.3364460317741924
0.1091636240861629
0.035461607043744986
0.020727656
-0.09023664379832363
-0.2785404106837451
-0.491464834900014
-0.677037141547314
-0.8833859445508601
-0.9081828056802126
-0.44236399042962654
0.3470099760865089
1.147647901003838
1.5196796039363265
1.5599364449032158
1.2753348728524858
0.9237869534763417
0.49330361709289555
0.27504679071291316
0.055087348570407285
0.011495768989175374
-0.09416110712379297
-0.2241843602626384
-0.3930238840034873
-0.567001225764164
-0.7796497390710062
-0.965565673777977
-1.0173051400241357
-0.6490702365861782
0.18341040656052454
0.9022187676540234
1.4769359223738485
1.4883760359656535
1.2451016649541062
0.9167626224725576
0.5513549475441685
0.2143318486064501
0.03519964114474608
-0.04522534723503123
-0.15197323235277257
-0.3082229168286529
-0.47380436630600153
-0.713850427276175
-0.9508172555321406
-1.1306228472523823
-1.2933403761654323
-1.327615166627362
-0.9387535747389235
-0.12006438286661325
0.7613548526277638
1.1490190412143286
1.20048494742507
0.9334702110165307
0.5495347799154459
0.24073942338840376
-0.0342653850643643
-0.12417290176935261
-0.16787041453228446
-0.26602696114190716
-0.3933452191098997
-0.5530331064914069
-0.7742716905751991
-0.9520125749934361
-1.1485504349074267
-1.2849304617189916
-1.254260348094305
-0.8410110224939422
0.08578600752596022
0.8418834585973921
1.247267265711945
1.1516261229707083
0.8740311084257376
0.4336848655944406
0.07198303018836205
-0.06963130930380196
-0.139996916896456
-0.17011054692445637
-0.26433327323510547
-0.3902756723549497
-0.5903856942612881
-0.7670533002966715
-0.9347496428466013
-1.1363084552810405
-1.2423091023802528
-0.9389653787765018
-0.14010470299757882
0.8309009033413838
1.420400339750568
1.4624839233524418
1.2269270843874807
0.870446103196096
0.46604128467199013
0.14095270485057604
-0.01635420541577748
-0.04482939448683987
-0.10371859124261192
-0.27109160401477644
-0.4312187783729255
-0.6177208816235071
-0.8432204177417868
-0.9705147639677811
-1.1275722924925748
-1.001588906228699
-0.3039274670578693
0.5558548606717111
1.4288630335106474
1.66615181833994
1.5687312809240226
1.1803327812205942
0.7369097966984548
0.4045837113618365
0.1320727636639317
0.020727656
0.020727656
-0.06389343003953056
-0.2803859835547132
-0.4984442763209017
-0.6402874902858104
-0.8959924098434967
-1.1209925091822992
-1.279036768748613
-1.0959563325918404
-0.4833338610244345
0.5353708691869976
1.401063118028653
1.5604245959462297
1.3149690531489886
0.9582002170076036
0.4988644505909331
0.13646655741521663
0.01871595452964408
-0.03445036900500891
-0.08100589584898749
-0.21773320458747655
-0.44593995598596287
-0.6209418353143819
-0.8514970457259425
-1.1091715943184037
-1.2082950045086276
-1.0943667714038543
-0.5684560637954681
0.44807879117706817
1.0537962578325715
1.341923019282314
1.1693639686956367
0.727766059024648
0.4121734826305721
0.042672168737238655
-0.0615228901430703
-0.10625257
-0.11439649255010907
-0.21737845393226177
-0.41534033424149375
-0.6174665732919543
-0.8278664547311494
-0.9683407496903594
-1.1030590134217626
-0.847461733152043
-0.1565494059172564
0.7935630033971113
1.504350601577039
1.6565954284866378
1.4489576669546194
1.136003640528317
0.5732979163225689
0.27715253571278575
0.03911700028596804
0.021898372024353185
0.010408775378628818
-0.056876343085623324
-0.32894808033946665
-0.4959953363782016
-0.7452779314372239
-0.8714690772802818
-0.9972529320029588
-0.8164603100371378
0.0719851141256737
0.8594178565539438
1.6564421215770782
1.748965483520429
1.5191750564041764
1.1803806688612204
0.7886018864488294
0.40365842067195296
0.2185101866396828
0.11365665775059208
0.05296748401178557
-0.052306764789357266
-0.4116897222616739
-0.5526312090089305
-0.6935726957561871
-0.8247434717412562
-0.7658580763411595
-0.43460631850303033
-0.10114280002558901
0.48292028966647615
1.3902458364202979
1.5031173941601486
1.1018334701185146
0.8581540045624874
0.6264858458440825
0.45392679525743485
0.1582237530894528
-0.0361375985478065
-0.1430263209778152
-0.22939201273442805
-0.31575770449107854
-0.5558901230875729
-0.6820812689306089
-0.8263882523082686
-0.8172989434421465
-0.48594118718310036
-0.15458343092398208
0.3107330447887931
1.088980716504179
1.3935197130586832
1.2553196448670114
0.8114648938718071
0.5131182276854458
0.24098759321802798
0.11169867894008884
0.03438982143199837
0.020727656
-0.037415941199944076
-0.18080616845805403
-0.3933155602860271
-0.5705878989805886
-0.7034924094671109
-0.8159916185904936
-0.7729192002961304
-0.1511353055877825
0.5021326533697297
1.2419639751955995
1.6231244524731854
1.571776572649402
1.2181958191087412
0.839345912375379
0.47120896658621814
0.2547659833817949
0.1490619748724556
0.08468263623717055
0.0030931291580461595
-0.13977858213903085
-0.3555902532606927
-0.5369549095787814
-0.6996983731779342
-0.8513755983936544
-0.7921611773735445
-0.2972020566470862
0.5848685647952371
1.2900692185268625
1.6316666134842115
1.6108920088063274
1.3806888535549355
1.0668744456327586
0.6963110140463528
0.38710410915327165
0.1878062703158049
0.07105107567262944
-0.03189719475027906
-0.17318358058528205
-0.38620543117185485
-0.6139199611914558
-0.7994045880795679
-0.9537418342390944
-1.010497439759654
-0.8076201108475197
-0.2536341167551105
0.6182790692699915
1.1989762280311778
1.3432854094477422
1.18851693409184
0.8413506590430968
0.43693297475288534
0.17000391546504795
-0.01365188032213837
-0.09752083843680401
-0.15126651613157593
-0.2939027440872291
-0.5030573686704723
-0.7143579846097531
-0.8845977385275576
-1.029944132282842
-1.146054301778168
-1.20761599737937
-0.9731572966460436
-0.337544239553454
0.42250841124324096
0.9538334564179423
0.9773946035873655
0.7096548113870851
0.42468914391153384
0.09043134571539553
-0.057961807084159836
-0.16576562367208658
-0.21772519682629224
-0.27963767296659986
-0.39356128623285674
-0.5977642887873647
-0.7396909867311274
-0.914947787314357
-1.0756847547492483
-1.1967001292440755
-1.0991806762117418
-0.6546828329638984
0.1367614837381837
0.7315318237758042
0.992392159400441
0.9104695025529144
0.6343085304484657
0.33414949842364816
0.06321032705406847
-0.10350862680999628
-0.18471075511303153
-0.2285831542629056
-0.3237607547353563
-0.43659370785048035
-0.5981298420157489
-0.774090555275262
-0.9667878370858479
-1.060593680964483
-1.1422263954600989
-0.8979801016753315
-0.2902146151578842
0.4296315265829762
0.9127911567681937
1.0486388842949332
0.9045970669143112
0.6350964878833647
0.3285081019633822
0.07453154927432033
-0.04309484471564326
-0.12499513178733046
-0.19884720122366634
-0.30488542499407534
-0.4493102573779033
-0.6136341910679316
-0.7730184562723234
-0.8951658565332681
-1.0253368132255636
-1.0463896237380965
-0.741493286552943
-0.10601490640789285
0.5487766489833745
0.9386373865978243
0.924942875940961
0.7214263541326308
0.45506207992268366
0.16871109356953276
-0.012278637825917621
-0.14669373374561798
-0.22130270382779257
-0.26566153952333266
-0.3682801746894806
-0.5493593778341989
-0.7265211396344328
-0.9351959106769825
-1.1287884169512743
-1.2667616365468426
-1.2515978552451896
-0.9155078368207783
-0.2647920888646673
0.3923886268572568
0.7716259481999374
0.769677180616299
0.5450551588712569
0.22948730587960817
-0.02083099817418807
-0.17381024503763465
-0.23323281
-0.23323281
-0.27832102322632346
-0.4089725042178841
-0.5670899650639397
-0.7026961017799319
-0.834113919584715
-0.9563247287510293
-1.0212091967752706
-0.8349503148583497
-0.29115569148218434
0.3618700728657538
0.8696560844896343
1.0088947850424066
0.8430657497827121
0.5456047785265151
0.27354406082044136
0.08986199360232193
-0.006376073401542802
-0.07485334810448722
-0.1463454335133758
-0.25182493320327876
-0.4180743181576399
-0.5896663512297331
-0.7561780541029258
-0.8892928120452637
-0.9321636949035428
-0.7082908588826147
-0.09317867737215779
0.5847448688896959
1.080531771331379
1.1234911843664266
0.972487822079768
0.6556730738686548
0.3989609211355263
0.16383070011429415
0.03151227260100496
-0.00818427539186781
-0.09229919062410388
-0.2190593764936205
-0.36783425720697865
-0.5295777273003335
-0.6680292595189476
-0.8208321973571158
-0.8944688343958417
-0.7108556018772869
-0.19239869736431175
0.33157446266662605
0.9516122644451379
1.0579021526052088
0.8901418853191125
0.5983999817159963
0.32350247236923724
0.07478284329798429
-0.05107115767101807
-0.12546804225708244
-0.22092284247280136
-0.31905318970568475
-0.45587300495511307
