0.20003787
-0.10337635205296497
-0.2487188877157018
-0.2944679
-0.31058213331005985
-0.3619202015298548
-0.5709285307524926
-0.9004435088163392
-1.1328419843755666
-1.4264497040688537
-1.5380486273008587
-1.1905491190351274
-0.36552090001512116
0.718031902784095
1.4658945012451263
1.461816690588789
1.141149430606882
0.7036008071572563
0.2004120134587956
-0.0021260649040970303
-0.06486447698945808
-0.019075998648912778
-0.019413944679917288
-0.10896162563327559
-0.22360844789062298
-0.5233064702022759
-0.6915377928623132
-0.8830713772401759
-0.5857958357477764
0.11732500953928116
0.8999818473025345
1.4294079116018081
1.517168026801228
1.2783013810613855
0.7015641840910638
0.224286561655135
0.04883556141436024
-0.011893171
-0.01199539003174062
-0.08204358764703892
-0.23336590387071487
-0.4272887257303769
-0.6181032905171765
-0.7847989166494141
-0.9557569459327272
-0.8986013606269115
-0.40277762289292823
0.4952235641027452
1.3388660791159557
1.651367607228375
1.6322753680954953
1.3349971839908612
0.973336312409603
0.6338942102275009
0.36376416474012724
0.1715364392402536
0.13330171906193788
0.04360195432042899
-0.07300558189918957
-0.2409531098708178
-0.44998922751024345
-0.6401179141172268
-0.7967282680111936
-0.5823698812741198
-0.06173664989165617
0.6113286734671728
1.2026824692569302
1.3397385951030274
1.1261979747456947
0.6680124322796408
0.4038656163887223
0.040918823016818734
-0.005251807089484771
-0.05880098614976203
-0.11268456713746415
-0.22733139101770006
-0.37985144796524806
-0.5490056581175908
-0.7632259555744866
-0.9352143627333613
-1.0839560073959318
-1.0500915257530814
-0.5944944863313998
0.2467029656101059
0.9740427590061247
1.2197049874723955
1.0973009749519933
0.7928806567741462
0.4497828077858487
0.1461482675907697
0.005344320273002983
-0.011893171
-0.04152113318864768
-0.14695334038820101
-0.29301600318335125
-0.47591805969916506
-0.6527058144317576
-0.7970275052525446
-0.9448383063954958
-0.9924333447002981
-0.7209867808864241
-0.1575589330238189
0.5462495719545305
1.0506010577906257
1.1269927350845441
0.8731668224585944
0.5242710355139082
0.22490964986197307
0.0259667762456047
-0.011893171
-0.011893171
-0.011893171
-0.11133898648903377
-0.33985813459534286
-0.4919968439807897
-0.6362083902305853
-0.739809316542209
-0.7187132079585641
-0.41819051832703263
0.24102872709873852
0.881543649675254
1.1942081048427922
1.1804938215715186
0.954005661595789
0.6310371699331733
0.3243193462289191
0.11741139068207253
0.015408540069258903
-0.01781705620479338
-0.046872738746056145
-0.16151956506062498
-0.31257173146711137
-0.4561488853526867
-0.596058791929211
-0.733441040194348
-0.8443304762083518
-0.7105949524518677
-0.20913920526945967
0.45848276889327183
1.0339990029514972
1.2860307336003722
1.1732406392100376
0.8543324963921983
0.6394158689612022
0.3369574104772745
0.030978727166842034
-0.00818854383722177
-0.0277519619320052
-0.06754888472760825
-0.2020991511799957
-0.3565877194092066
-0.504153564144747
-0.6480310516881866
-0.8019156135774063
-0.8955836100425528
-0.9866264622848798
-1.0640051926035963
-0.7736957819451495
-0.2081216801474679
0.5953684814199598
1.0622462706364413
1.0756216993418086
0.8917346518412244
0.5850637997724715
0.31634929932807476
0.0347045495656409
-0.0666835791346867
-0.15318053
-0.17219362364418797
-0.2929811025209168
-0.4327191282776589
-0.5831930846204653
-0.7288232041895777
-0.8551114097206396
-0.9563966466172259
-1.0423817726418438
-1.0675764738398483
-0.8328083565380864
-0.3215336576721179
0.33928536661753683
0.7692109642828646
1.0721227621141376
1.307175590504726
0.8374032057460414
0.2620310508552758
-0.02546863967399894
-0.17644755134761367
-0.22382421
-0.28829244499966167
-0.4809588938457666
-0.7812769256129193
-1.0656077071062537
-1.3637208209596319
-1.6005015922004588
-1.607716270746431
-0.8985895628320509
0.17342530631284414
1.331853435979593
1.7817785823232795
1.637203161437001
1.2045583117299443
0.6674393905502443
0.16126867986714108
-0.2337604472530645
-0.3434960264129517
-0.41472067579617244
-0.5258261953415229
-0.774898360095057
-1.1457647657440984
-1.3023751279504163
-1.626296991856447
-1.7982671952190286
-2.015793102821439
-1.9372849665037386
-1.0360579808531296
0.10901218413715874
1.6070696294325422
2.1306025576369714
2.0323862572677327
1.6894762849792342
1.1085698176799785
0.5609690420638554
0.042729849564021885
-0.12385653614595236
-0.2617144583428967
-0.39698466919343917
-0.6338089607482901
-0.9398728998208884
-1.2869087154015517
-1.6412761816253825
-1.9477454910838539
-2.1924364578020907
-2.2458030555905957
-1.7473843475383546
-0.5424198881937203
0.7020486014005964
1.4788208923045958
1.6570274121747544
1.3608373382659158
0.7996275381253057
0.24243299830272425
-0.22371157767607922
-0.508703385750403
-0.5853123970196193
-0.6635882188802822
-0.8195529801592594
-1.0691554702413002
-1.343965645156044
-1.5846855875138621
-1.7839034159958236
-1.9698745169220433
-2.0571096567112255
-1.6028579571375468
-0.6479698715260228
0.760216646391882
1.8981074634881403
1.9176617829719287
1.464378434385856
0.8417148628450157
0.37027371870846104
-0.14987090204463693
-0.30914113326638326
-0.35689153911268673
-0.4299125261319778
-0.5786939528187264
-0.8292304818458458
-1.1643450197472045
-1.4677592418001775
-1.7019691483550383
-1.8938517144011842
-2.0240675498459098
-1.884519092510258
-1.1586247286599998
0.329026916087533
1.6273673119331058
2.1898732898646687
2.13522224009799
1.7926995453245673
1.1471346349561753
0.4773806823765199
0.12386719328178752
-0.1264616379624637
-0.23067124425297425
-0.350133492694757
-0.5898583024522844
-0.8989488617985116
-1.2309029649481156
-1.5623058599536055
-1.7712177603273396
-1.9663857566443768
-2.1739429712974494
-2.0326820980427587
-1.0336905514784498
0.6751327798400704
1.9277178465992042
2.428527304859697
2.263435909631631
1.7723252052688867
1.1034856526347159
0.4000651627170073
-0.023781441670526877
-0.27657427284233094
-0.35961315053291665
-0.4680733302097147
-0.7326735463374826
-1.0820725373345599
-1.435829502249458
-1.781917972777225
-2.0680088492796838
-2.3415078286809456
-2.477464033348693
-2.0174569881612388
-0.6177398844474666
0.9046956125327729
1.8610485470593996
2.0478007412446915
1.7142140914763357
0.9785827342342246
0.10243895961255645
-0.3060851224930763
-0.5577603865376075
-0.5472860179499357
-0.5184131965403853
-0.5775269398978534
-0.850310132791376
-1.1270583923992072
-1.4730633193899405
-1.7906517703212237
-1.7275648674381303
-0.8248050056298375
0.667893338495861
1.8408791590989735
2.3163724113652586
1.9899750969474437
1.3138584144162873
0.5112430026923909
-0.037979835976904575
-0.3546550861227115
-0.503471819344606
-0.50639894
-0.6508044023443498
-0.9994547974357582
-1.3664644553647136
-1.794309583274553
-2.1335376099708023
-2.573127097471434
-2.469024937458664
-1.1461547079971786
0.6248464371247601
2.434186094070758
3.0979057823627016
2.9250978277091755
2.3353863092049973
1.606460254997176
0.8648220507711989
0.2914116261373346
0.004252724855826489
-0.06494808063864826
-0.23642195337631913
-0.49857822237496313
-0.89446968070785
-1.3222192189045885
-1.7964351585164835
-1.950829161763772
-1.5586847807692663
-0.19438754007936954
1.4038795207971217
2.4930914212537414
2.8415243590806085
2.522437804572688
1.840772111053272
1.0478173580998904
0.39617946650728664
0.020058828305483417
-0.12498236811240532
-0.2017588414048719
-0.4023907831952881
-0.7658751763277614
-1.2884226385161068
-1.7207890419261047
-1.7519408894607045
-0.9850913425648502
0.3327762501943513
1.964242271317563
2.7249497542360404
2.5683393920297233
1.9161360578841675
0.9732472255409415
0.36177837784698674
-0.17479531569248352
-0.3117926814918094
-0.4320676714506326
-0.5436912579545978
-0.8259999835082463
-1.1845366465757454
-1.6167357411206842
-2.0213713212201663
-1.8664206745700005
-0.7222701972885054
0.79799565557597
2.0338077051654784
2.316301639897562
1.897505678095279
0.9949128650568941
0.16678402451176422
-0.511581241216117
-0.8380154503265664
-0.922130199135066
-0.9637488873039429
-1.1051106596706926
-1.4817465398315146
-1.968687672690952
-2.2852873623096968
-2.333249306203804
-1.2567072290736356
0.3383211687548173
1.6553289096860269
2.2290513303667825
1.9487551322643815
1.171273649638756
0.12446888954192853
-0.6794905377307325
-0.7411006018678723
-0.5388961611379864
-0.4906405457546642
-0.668810753275562
-1.015256135931192
-1.3736357951403888
-1.7475516868064196
-1.8892337640392842
-0.9907941451027439
0.8312581282537364
2.201407958326561
3.052861543749108
2.749447321696149
1.917223476939896
1.0716212339455213
0.2954237200052518
-0.11966119297372663
-0.22382421
-0.23861560349317884
-0.36346865783848703
-0.6250893079875661
-1.1231056457935304
-1.4790851164497716
-1.8818051476242212
-2.002579846931677
-1.2122308300324587
0.4474122563469072
2.4195625668603213
3.405352658728074
3.4247260422107018
2.8853632293153897
2.1229734551723536
1.2935392086970139
0.5942179063541477
0.2037331926149839
0.045367898078535994
-0.07330044109408974
-0.3560719918967619
-0.7718073196724553
-1.2051646889096341
-1.6300323535765888
-2.011243429438231
-1.6162251675275936
-0.34476537376226646
1.4154723165757288
2.709737676938552
3.0995148451221417
2.782112975616656
2.058049218094143
1.09372646318492
0.41477923501380776
-0.13794511430552475
-0.3743161739880898
-0.5137213274487928
-0.7424401400443386
-1.108264924821698
-1.6034334964804537
-2.1597634912226704
-2.6398381
-2.6398381
-2.465615952462862
-1.6024092532397245
0.7533805361854792
2.4061865169273458
3.0759156596212494
2.8047643573812073
1.7920874262819277
0.9226910143258427
-0.07392008857832802
-0.543493401670618
-0.7055826448249898
-0.7364684567329354
-0.9548983768427884
-1.3104500300877064
-1.8694648420803839
-2.379810399561793
-2.6539668
-2.6539668
-2.324687743855219
-1.1862515437213013
1.093434287889983
2.544614846809614
3.1048406798441657
2.027287948842843
1.0205402106092998
0.2745838815715528
-0.09064840835331485
-0.233361402852316
-0.20696858047190225
-0.19517086650159082
-0.2844021808505576
-0.47986891455849534
-0.74670864303994
-0.9844289547275478
-1.1545359026728919
-1.002536291868397
-0.2914021432675654
0.8663136553019303
1.3780465364136218
1.553266611951382
1.3977494461683628
0.986080473010419
0.44111319049448916
0.020314602340126386
-0.15467058638472744
-0.2143618508714968
-0.24906914701572624
-0.32753589080605144
-0.5063858493964482
-0.7292678488485533
-1.0318675391014898
-1.1845435799415571
-1.2441787582571182
-0.7112597425975666
0.1285949053811717
1.3880205342072498
1.7706447093568534
1.8000054480767547
1.3983518079036927
0.9980899815111601
0.4434613677477285
0.12295652461505635
0.0007602746942781125
-0.0436125022937789
-0.12149906865192057
-0.2692701087470531
-0.4730176349481696
-0.7012144405442153
-1.005194913041338
-1.232413021659732
-1.1068245502354837
-0.5714279248873597
0.29799627653720784
1.3930327226989343
1.5332864523453622
1.351554921882651
0.9425416212830819
0.45530345398168554
-0.08653334580655922
-0.2911928943702775
-0.3627865162553634
-0.36511158
-0.38925782506924117
-0.5373242018107716
-0.8163729286364171
-1.0170244155473116
-1.2337990225446926
-1.1537951041879424
-0.5154025004647262
0.6482477721837177
1.288378350190993
1.4351293581482703
1.1969359854361576
0.6110968543263295
0.0337316062976622
-0.26595137278288206
-0.3396599557200894
-0.2582126597571389
-0.1795998442050119
-0.27113375612315804
-0.4537349170607357
-0.6403696369566125
-0.8757464409470298
-0.8336369913802855
-0.3450824077388753
0.4903230099343188
1.260380442403104
1.6631578947605483
1.5867197529569468
1.2029660685350752
0.6971430126458128
0.2509752643094298
0.037409000308724474
-0.011893171
-0.011893171
-0.06564832707224602
-0.2554054972146017
-0.46661586396970406
-0.6773541988017363
-0.9061773881337749
-0.8188814045369135
-0.3151654750369352
0.4777170432530059
1.3789105761725824
1.8075698478687465
1.8010985613405779
1.4889157972130371
1.1714122549227202
0.6720932895516776
0.4332266275829634
0.24594688628592073
0.174292621360779
0.02526670673264114
-0.04638755900395864
-0.20020092935333542
-0.4212060341872016
-0.6128366771769916
-0.7596405370236391
-0.550033421354176
-0.002533937395243435
1.1522812851939777
1.5163549274374566
1.6424502038921873
1.5014107898039193
1.1638830000656608
0.7853296324674028
0.40617480743410295
0.17435216052796276
0.07427455287137008
0.008862802149977955
-0.09253869148588885
-0.27261490969420393
-0.46719290074211683
-0.6481575835007602
-0.848900904458676
-1.0091567680632851
-1.08954328260348
-0.8088804544365265
-0.09533347186975516
0.7417916631211265
1.2981175277708346
1.474930099480399
1.320718348717442
0.9847764530676013
0.5423105857880791
0.19663099083534522
-0.012553951227014491
-0.11753759885688873
-0.19803622837953597
-0.33177175213600646
-0.5011018436703086
-0.6958038384372217
-0.8865429869809954
-1.0587670816102606
-1.2593989584851342
-1.3819350022195147
-1.1107380616431157
-0.44363195400571237
0.4410783857941431
1.1990292952168224
1.3458331550634701
1.145579586429876
0.7615491333514667
0.3293047792960513
-0.04257382435079586
-0.082536852
-0.082536852
-0.05981913282106942
-0.13314056913702796
-0.28672756528858506
-0.48537768008228577
-0.6439905650435359
-0.8190348406756363
-0.893485869063582
-0.5583595451804124
0.17480112117476165
0.9285875644491013
1.4144100039284995
1.4565092638009307
1.133819019450203
0.7494517727196213
0.3415680189179017
0.052602423486082545
-0.0072530546894463074
-0.011893171
-0.058779720730089004
-0.18550405847079932
-0.39509937106072535
-0.5964031542249467
-0.8321514912907146
-0.9569348964636987
-1.043251446721713
-0.7104764443870901
0.0168528917701799
1.140721183235844
1.6399867759041897
1.8032782898870159
1.6027917592213077
1.284168725082969
0.8913311787138759
0.4842897342365534
0.22217716021208328
0.07672318572329315
-0.006291167155670286
-0.10407485465529942
-0.29993456999317825
-0.4911864920202474
-0.6568321668589961
-0.8228216787474881
-0.9644647201270571
-1.0857711454629868
-1.0033032860703792
-0.4110724848741108
0.4670332173876785
1.2663234559173602
1.6069036178983345
1.5859751105976616
1.3488229578924917
1.0233307082101402
0.5761085133917672
0.23327948452633812
0.03545964112516081
-0.08711592636028377
-0.2123676141824979
-0.37015809493654356
-0.5580067881757308
-0.7682117441744061
-0.9330739389953053
-1.1148117009325296
-1.3237852201134501
-1.3811086482824497
-1.2016973680389456
-0.4602110325317861
0.2839105613007519
1.138362802414914
1.3208338263310948
1.226879346054423
0.889694224231581
0.5042446226530368
0.2106368946473281
-0.062063103154674705
-0.14932260838928454
-0.1885373256658126
-0.2973457302313941
-0.4324579270208716
-0.648676711091553
-0.7850342457256337
-0.9255324334057511
-0.9886920235514773
-1.1320005777451052
-1.0978375015179604
-0.6538921696845852
0.0450284254910191
0.7516704017029642
1.208691347591082
1.1418521931818795
0.8698724826675399
0.5319073172496785
0.19908615140050762
-0.06883945643587987
-0.1452515633835809
-0.17070574180872883
-0.22420891640973994
-0.3574913236434458
-0.5532020719158314
-0.7403324102854473
-0.9334498642580651
-1.0856469238239923
-1.1812050397135507
-1.099878763581093
-0.5496854165237284
0.184333891021787
0.9379484116362815
1.4568954804207686
1.3956494595922209
1.1705111175864136
0.8514517052696045
0.5048008096481942
0.20984209749644278
0.007755009906002103
-0.020259841990246635
-0.11382107448801611
-0.2320584784863954
-0.40524163637513766
-0.6638907623671187
-0.7385258483272974
-0.918986226396121
-1.0273797831466818
-1.1872699441499064
-1.1799900202444131
-0.7871191718659764
0.09059441479671837
0.9583925112821536
1.4124337605719324
1.4173940976131747
1.24609451945023
0.9236125909797718
0.5483327152871411
0.2094978999548425
0.015364004423488078
-0.07474255964030989
-0.17709584379413917
-0.3158877161350807
-0.4911116968711875
-0.6778361324064436
-0.8920251179711888
-1.1190201194539617
-1.313086121345051
-1.4703996005950264
-1.4173445556115107
-0.8406355388566032
0.09941547493151803
0.9383175176758662
1.3050675614822296
1.1920854029836956
0.8723205608209964
0.47106705374608887
-0.03460099027483193
-0.17265899044223326
-0.29275493851747714
-0.24500453267117156
-0.28280463297850283
-0.40555349714784195
-0.5719703534014888
-0.7517438834879486
-0.8998102602294475
-1.1164924937114473
-1.235897172597345
-0.9983042514891877
-0.32168681731804616
0.49200509740994075
1.21428006790565
1.4712937284879521
1.2839946081221734
0.8672874167506821
0.5094438540421135
0.1599510015304427
-0.04038072838344873
-0.12160287250972814
-0.1795028685321513
-0.2799703206458088
-0.43128071222023306
-0.6103540620553007
-0.784618649714947
-0.9689312984815138
-1.1622839576305397
-1.2595272594861522
-0.9350657905805793
-0.12195434663287208
0.8567039572162312
1.388104716681216
1.5762014568155613
1.4042639085331645
1.0792076069035872
0.7332078419188408
0.3122049796365472
0.10570548960044479
0.014261262721309662
-0.05123561782248808
-0.15790665842513946
-0.3397558171902218
-0.5264581733197348
-0.7529366672113013
-0.9557018727022499
-1.1623186016547402
-1.1795844622154108
-0.5934377439798741
0.18386270836818527
1.0715132918051276
1.6044939722031017
1.5586352783545556
1.2621000656512895
0.9485543080025162
0.5039317518579501
0.17937582845645464
-0.018914633130767522
-0.09499270385346394
-0.20803186061198053
-0.3647748980072797
-0.5995837491039726
-0.8507607999158814
-1.0821156488026822
-1.2995082251323584
-1.516490124250719
-1.4922234355873754
-1.0762008612807374
-0.22161154628961527
0.9057679764075224
1.3899494082478068
1.4202350010307685
1.1451760666298525
0.5700292391393558
0.2681947028948649
-0.046212177074422885
-0.14342270662877635
-0.24067500867576064
-0.28525777117414225
-0.4470279181689317
-0.6752256005871324
-0.8637032632760402
-1.1052072239714563
-1.2760361110626892
-1.2015489328983557
-0.5059996646792639
0.5223858817736591
1.2986702784589716
1.467851745117784
1.2751548631862655
0.8464082968560742
0.3845875571556108
0.021539389145025237
-0.1198774725255094
-0.14742493362060252
-0.16490515192035676
-0.22362669585900424
-0.45717863658304336
-0.6245682224357294
-0.8849357100010433
-1.0637425628498063
-0.5413977549260991
0.7135303393809335
0.9609218173050758
1.2083132952291917
1.4557047731533341
1.6711848018245286
1.51457443961822
1.0507842028897743
0.6306173105780992
0.309795902641682
0.07787658260078065
-0.0032180220403072
-0.04234068570137582
-0.14514859085277793
-0.3553535468514307
-0.6005957870679433
-0.7766960697539603
-0.9959579269058395
-1.0874371860564822
-0.7629365970099429
0.09943067230963087
1.0718643912546963
1.5194145271458073
1.5364555725118743
1.3152345428310148
1.0160652928443898
0.5219531808836549
0.13533279684530797
0.0016289144586001392
-0.08524265009052215
-0.1460624315276615
-0.28764645638958336
-0.5009229962635885
-0.7029902415607575
-0.9271307286679394
-1.1357200603595372
-1.3035259365808396
-1.409638931088562
-0.899487400751597
-0.006618395919449405
0.788441693597419
1.3272486646166815
1.284022010800745
1.0081694160130834
0.6784886992534852
0.29528338054504516
-0.009466232727783637
-0.1661195942156128
-0.24402876726872738
-0.333503187288289
-0.5039081343503288
-0.7026009260037341
-0.9153811156140659
-1.1165617994052928
-1.2815415979645164
-1.3759572394172068
-1.0926323699548908
-0.3883033649515843
0.555729979313817
1.0721785455020367
1.1162263168118511
0.8408626561566319
0.4618824236471868
0.12801259162581377
-0.11405878004066167
-0.22382421
-0.22382421
-0.23178563240503475
-0.3301898616191328
-0.4867053116374131
-0.6395295352702294
-0.8419033316726292
-1.0110438925356413
-1.0048869635799211
-0.6211357395193469
0.25010675841366414
1.065706480735796
1.307791719806437
1.2290447807448934
0.8112152988748291
0.49593653320417197
0.06730142399722039
-0.06643409813635803
-0.15318053
-0.16005072830225067
-0.23646284011864244
-0.3702412621041944
-0.5402211241771181
-0.7041414886229548
-0.8523886249582118
-1.06259358907133
-1.0996583601520706
-0.5488123529702437
0.17974955767727968
1.1684382393445576
1.5263229816982389
1.5559608431656624
1.358257714722594
1.0140530818365603
0.61603092405172
0.2844334358940762
0.09908607144327126
0.0048563018186290885
-0.02275319850371721
-0.13371276311976438
-0.3265281636415562
-0.5134048427549562
-0.7421684724270812
-0.898848317085936
-1.118278434146511
-0.940925441067071
-0.2485047016511196
0.5693447669941587
1.3234292797769727
1.5251472653291753
1.3074511632443375
1.0033353455065914
0.588995867363106
0.18209706861700306
-0.036220440668844306
-0.150019181432486
-0.2285365187069299
-0.32553456627845595
-0.48032234374944344
-0.6846049566868124
-0.8704149550341048
-1.0593302001090128
-1.262072986425662
-1.4134872262661797
-1.2602604568535158
-0.6379780051328265
0.35560871395412474
1.1757839628370523
1.4472482369357562
1.299079630911566
0.8414656798835551
0.4568892030089265
0.016621416403813635
-0.0985952455511715
-0.18934426462030599
-0.22382421
-0.25207510559799207
-0.3593914687344717
-0.5429778426767615
-0.7532880401163162
-0.9420157446583322
-1.0212723177376057
-0.6183712167504511
0.10908231486435871
0.9268145978576683
1.336392376300323
1.3277011799634597
1.001080637177612
0.5171155130088294
0.12418976043346647
-0.05453521016241715
-0.15096546821735876
-0.15318053
-0.22824732196561395
-0.3744976095878128
-0.5268218453124092
-0.7064161034896554
-0.951277399835245
-1.0850128911339574
-1.2251058987709609
-0.8604437125113285
0.008190145988255598
0.9762271261127076
1.561263467342926
1.6789384906535207
1.4318757749865045
1.0468003164046826
0.6485277037329573
0.29899550801769353
0.04700283267882216
-0.022325161803713984
-0.054415828681055725
-0.16408387793375592
-0.37631122232682035
-0.6248058742270612
-0.8059881060151246
-1.0271648094581507
-1.2037581858565372
-1.1095531875995244
-0.44266046772055295
0.48396283971123544
1.201022604779453
1.5469531374524552
1.509888425379025
1.2172307588855946
0.7963734822046392
0.3425879469587222
0.011695051305797927
-0.18218347533252377
-0.28778220179717434
-0.3710245773004868
-0.5128640398913188
-0.726657920050554
-0.9759432674547935
-1.263274678517793
-1.51572555767639
-1.6723359198827485
-1.454813057055291
-0.7839066383086175
0.5488349829335911
1.4795426868686943
1.5751008027582445
1.3632410644443635
0.942385529773516
0.44961130996735976
0.0011315089702789716
-0.2094636577270545
-0.2944679
-0.3072340778372608
-0.40451252890596784
-0.594884627417651
-0.8128574853473954
-1.0696274954157805
-1.3121460671188554
-1.4785042464492921
-1.048387637199606
-0.20184508859630534
0.6977974260042553
1.2640992262193105
1.2603971575934032
0.8973106818794239
0.35108735717843664
-0.09474720550843105
-0.34142000295384745
-0.33190893153753576
-0.2259303995942325
-0.2134513159278215
-0.3090647629881895
-0.5087301055286144
-0.7665481174753125
-0.9958417327780182
-0.9612019762765164
-0.4290191453724932
0.469066770136502
1.257612938520755
1.571363785986792
1.4972260191513274
1.1598117931742278
0.6917992689631819
0.2427849795360399
0.01799046731279691
-0.06582730715721621
-0.09304192724871004
-0.1476612134759188
-0.31077311499183446
-0.5095133853567085
-0.7824571046655255
-1.0690635188493407
-1.0910256010425419
-0.6333067471694841
0.38777882282558807
1.209395273634796
1.8053846838481684
1.8532194545338894
1.6378875317641464
1.1523596822360362
0.7967746949990081
0.3587260955796905
0.16918945161046894
0.0436480177676784
-0.024387003334403377
-0.15539274517187757
-0.38123515614955483
-0.6087188645732492
-0.8513556915829033
-1.033088306551222
-1.016102951413377
-0.4972459038385728
0.49473158878763057
1.318309414832758
1.7032129388114379
1.6395800023897746
1.3543680974025731
0.9687971574719507
0.4439360688389374
0.0949009843659599
-0.03669353020111256
-0.07691364730273562
-0.1814040988586728
-0.3210480417276995
-0.5369429110871258
-0.7212868115491855
-0.9615080451922452
-1.1753468659266373
-1.347140179680059
-1.004326345714861
-0.18508079220201226
0.7666625089234121
1.349469650647206
1.4196613857329794
1.1456573707929123
0.7835216131137142
0.34173611103033885
-0.04475495200968619
-0.19763649525679142
-0.24721840012641283
-0.3178692264154022
-0.46148388267148144
-0.5761307065517204
-0.8325522904825615
-1.016253407186742
-1.2300155729387172
-1.3879064965348265
-1.5348191055805667
-1.585685467201646
-1.2823857096340168
-0.3614549743767682
0.6448218655232987
1.3025426114807355
1.3889514408224155
1.1530527061507525
0.7162894078767752
0.31633449128931174
-0.09709806890238944
-0.3076464539175974
-0.36511158
-0.37657371535264783
-0.4252771590480392
-0.5972474029827742
-0.802836014541745
-1.0042771540366717
-1.1975986511320595
-1.3880802999593846
-1.532946383302456
-1.2659337734654634
-0.5140325215029761
0.35380992617877854
1.119762444463029
1.1227011139207241
0.80480076748647
0.3433829788323174
-0.13806760664818163
-0.38650011067186085
-0.4684006000348143
-0.37758903092857754
-0.31074993332044604
-0.40428932075068885
-0.5317266986904153
-0.6979676333479112
-0.8951747563181647
-1.08107576532481
-0.7607631728919075
0.015979287838114142
0.6521097870908921
1.2358011297907372
1.2695830801184886
0.9638773448849747
0.3639213601575402
0.03905624395471463
-0.2925770456069394
-0.34120130193297604
-0.31944824150866596
-0.3058680739112348
-0.3822801776131571
-0.5288012101842999
-0.7638605772245987
-0.9053805685457935
-1.077350780022786
-1.1302037426908529
-0.748280967239467
0.07537191661895937
1.0558321168437916
1.7158255134138993
1.721793563288723
1.4760953174534692
1.0287127018388502
0.6554721328756397
0.3377596508759327
0.05293501817297708
-0.005786526596907128
-0.011893171
-0.08797696217520361
-0.2871396789476128
-0.43640984294221263
-0.7009323628941316
-0.8028658472656703
-0.844195318593181
-0.4047540352598529
0.5909943254515664
1.2982138078488301
1.6793748552896728
1.5678881704067131
1.3290215246667718
0.8892291558970863
0.4132143170864936
0.16987050783271224
0.022385317713725688
-0.016585363016796976
-0.08206729552133199
-0.20872310004208983
-0.3780797714220455
-0.5927988527014652
-0.8150777663290033
-1.0005995003915549
-1.0868328529245241
-0.80530344383998
-0.0741629845668263
0.8798339809494166
1.567741860876037
1.6316952555465225
1.4060152929772627
1.0084117966241113
0.5136865875478956
0.1336920652348218
-0.03724001105196323
-0.09097952783607795
-0.15205082779548681
-0.2664965720626014
-0.4278330318205952
-0.6223680721373228
-0.8457249807868041
-1.0615504408557102
-1.2808936926746866
-1.4124183435235445
-1.19031649504011
-0.4833468031958005
0.7185352017112479
1.3742786707716022
1.6555821232546541
1.4060155116411273
0.8562189777438657
0.5038897141118492
0.07416392749057099
-0.13105456115719535
-0.14979980136125587
-0.1302455317516084
-0.18729111021209657
-0.3413217871468427
-0.5559905760463749
-0.8287241437850925
-1.0221062405817223
-1.201607011961279
-1.1154644547768422
-0.5742791676335475
0.42177420721681735
1.2092749569479222
1.5443762660438776
1.425240657333444
1.0239616995526486
0.5596735925173418
0.12867955620759305
-0.10685756285443582
-0.17468858372118565
-0.1316456898861854
-0.16695708837216355
-0.32018547693906263
-0.5310921291929176
-0.7603857827471088
-0.9884045250739437
-1.1939298956097446
-1.1690537635413412
-0.6811235971274314
0.2347217407338924
1.3785779407376137
1.7190249087680753
1.6115898879520407
1.271569289531906
0.7825202730491236
0.2952712634437493
0.035465177764251954
-0.06211396512227778
-0.10478161102045377
-0.16815128671990293
-0.28291522122135243
-0.5026931833138415
-0.7340854925435434
-0.9820222741180871
-1.2431400747778825
-1.1919096252653745
-0.4587146954168053
0.4908562563289464
1.3504604966668232
1.8029508793649482
1.7053297148558144
1.3459468447761287
0.8547232428649114
0.5023939792329575
0.09157440695146477
0.005240860763339458
-0.046868934534041666
-0.1404971623924099
-0.27720372433329393
-0.4676400623447975
-0.6982417109278697
-0.9178966308140445
-1.1110476901349253
-1.3216450148031884
-1.3255050316593429
-0.8001112097356906
0.19939389589186785
1.3227356629411156
1.7565258964111146
1.7015920463132255
1.34994321657673
0.8847383060087719
0.42615422686322296
-0.03348456471494854
-0.14283033346676471
-0.15318053
-0.19292306816729443
-0.32483424614554446
-0.5153795154903367
-0.746634635821366
-0.9678720184399536
-1.2386674560066704
-1.4087460204015503
-1.212772152952398
-0.4914716568098425
0.7450222497889794
1.3641150954964925
1.4849795318633792
1.1673057522244876
0.7298099933505776
0.15572633700582045
-0.12689868152022477
-0.228332686807697
-0.17203575673451635
-0.1673844627194733
-0.24960591820684852
-0.421842516583238
-0.623550176221182
-0.8461918638228365
-1.059984665272429
-0.9971927660378594
-0.40980856567271245
0.5813355011409514
1.2728099626601872
1.5394026095015805
1.3336317582596509
0.9135656391585966
0.3922055515792401
0.028442220846492755
-0.12293878298496254
-0.15318053
-0.16676211058580004
-0.2418459600433573
-0.4481736737973342
-0.6678943154639602
-0.9033941169598726
-1.1457084749393585
-1.2876523472788441
-1.0915962521052816
-0.2857205597620741
0.7047790228170824
1.89900533340801
1.9456452726254934
1.6981924039910106
1.399127024910187
0.9640166758734282
0.5341464929356146
0.12339667162586768
0.056500250346171246
0.005018961182015835
-0.08690143029053359
-0.24813817023122517
-0.5038092791649551
-0.6755308376859225
-0.9734155191035722
-1.1063433834465561
-0.7383125686637496
-0.02980603472914252
1.049172836324
1.5718155168971573
1.704526200272319
1.5214831634157546
1.1058620544481816
0.6784469263464938
0.2772344923193228
0.0442188159367664
-0.052928357831169656
-0.1337560279053498
-0.26611800060653756
-0.4472171950423054
-0.6487814050353972
-0.8725215723657398
-1.1268591706860827
-1.3790678898063204
-1.4104238018501285
-0.6666169422841847
0.35069696414579365
1.1737569177339109
1.5315575695146235
1.4254365471602937
1.0110455963377836
0.5314489568092617
0.12729629574680068
-0.12662421202548832
-0.21400417970198563
-0.22357718579579583
-0.3000801832975227
-0.4538446681360898
-0.6547877439074107
-0.8960627250470359
-1.1642745309177038
-1.3306326271245836
-1.0137131660165606
-0.2310786110486368
0.6839199051826468
1.343570058527696
1.4214694240504708
1.0475363431849847
0.6136302208405474
0.11186990169872184
-0.20182664297903333
-0.2409351905106984
-0.17801518502922692
-0.161190350763871
-0.23760246258022
-0.4624888498753563
-0.6389621936882087
-0.8906117558262445
-1.0564958885674303
-0.6871902386782086
0.07727733348285215
1.0856779745808656
1.5309734985819858
1.557198452994219
1.2485756072020475
0.8099974686798725
0.4012607101691111
0.09535091038213336
-0.004000245111309517
-0.011893171
-0.064257708889723
-0.22617168276163152
-0.451887886865253
-0.66447696669265
-0.890665915199294
-1.1171158016391616
-1.1280633
-0.6619282813858272
0.24669781184943207
1.2486998740215016
1.7778899980980711
1.824697766266125
1.6058123804466806
1.175481758806387
0.7212708334168102
0.35395711998812907
0.06088674691309186
-0.01584968443211724
-0.07976519365208146
-0.2026946556248191
-0.4176221714855526
-0.6152335911203235
-0.8486962078580103
-1.0457992136818728
-1.0315787704842025
-0.482391423367108
0.38074531591161365
1.2335822899207036
1.614162724877037
1.548463003818813
1.2618693728393304
0.8424426485766623
0.37804314858722965
0.047420531184534605
-0.08387883541385356
-0.17943696185219618
-0.30011894361878355
-0.4564278782352106
-0.6552241993536391
-0.8892824940158284
-1.1333631705238776
-1.388390833987506
-1.5079803034821615
-1.170429956739922
-0.09847396711017531
0.672960411049076
1.399235091889296
1.5177025105936917
1.2717259050181495
0.8041679346888646
0.41251642653401926
-0.016688618662401566
-0.07009608457616288
-0.06542784861100501
-0.06963809032927254
-0.18907694394884403
-0.36516250653074755
-0.5754933513021436
-0.80977434603361
-1.005493297333342
-0.858254001634999
-0.2866326165879074
0.48590314392591877
1.1737917870045662
1.485704783168068
1.3328805270775979
0.9171718795053561
0.48431645204523327
0.13123970799660573
-0.09348545461047802
-0.15080886492768675
-0.2282178140331947
-0.35563223780440617
-0.518946236406572
-0.7046125810826442
-0.8990864543258044
-1.080629680011059
-1.2491827278688263
-1.1200061464958686
-0.5673590582416401
0.3717020405706848
1.3706089011825835
1.7241224032604434
1.7171400311243756
1.4678984408784366
1.0048600642609948
0.6818915725984395
0.25906153343491806
0.12532601779287633
-0.011893171
-0.06337820700329823
-0.2390755609818066
-0.46257995245314065
-0.6802899631262529
-0.8806171556455216
-0.9948658781327886
-0.7975138643184447
-0.21723504394483634
0.6080635121667053
1.2638070311010572
1.4110602074975043
1.275666681426719
0.8857799356409881
0.5609281557619483
0.22138586925970805
0.01602423225778077
-0.08612197169426163
-0.1653459940677434
-0.28956583215626086
-0.4260589524140822
-0.6520649799998568
-0.8794091548193762
-0.9690448626326458
-0.7815302591881685
-0.12578677100916213
0.6643831108822452
1.099042359172892
1.1914460174850527
0.9952122175163782
0.5953904458683337
0.21321525404944774
-0.06945457741582971
-0.21078063511348025
-0.2604451237083893
-0.3226156792743691
-0.4360160228699188
-0.5889170006826129
-0.8211491671180859
-0.9601574431316031
-1.100680721781002
-0.9016628514699323
-0.28628114459241716
0.5150911245839807
1.082146383749497
1.215724602620032
0.9994917590910768
0.649132531487099
0.18016172095132205
-0.03460322789259804
-0.25425068945428614
-0.33733090144150696
-0.4061190055069821
-0.48069459827822647
-0.697829890330671
-0.8775667997068587
-1.1033075067635911
-1.2716932394912526
-1.4771763167784409
-1.652796543434354
-1.5837743618606828
-0.9907071132013184
0.06419221130603882
0.8744351424591656
1.305311658636483
1.1736459343920405
0.7594091866178174
0.3406851795130043
-0.007579245970454115
-0.18906517151605443
-0.22059249916627202
-0.22382421
-0.27413609977687
-0.41283962561334897
-0.6376455613925494
-0.8573661949447792
-1.0295659039666996
-1.043771749998896
-0.6406053261574113
-0.05779818849051244
0.8206932172122255
1.226877016129749
1.1218120716719908
0.7901404378274681
0.25324077231616304
-0.059921225299084224
-0.22825525238472508
-0.2774124608821631
-0.22382421
-0.2599395361325413
-0.3990763943898341
-0.6329815248882257
-0.8159359577838422
-1.0212760625235762
-1.1500410860418515
-0.9384507168791245
-0.27295944731939337
0.6929277703738534
1.3657199185046167
1.5769321111377068
1.41199110961209
1.0203002564683967
0.5477634660978362
0.19964617094254736
-0.005194307238562047
-0.09060361640369285
-0.12170023329223247
-0.19997605515286876
-0.37766412706405084
-0.588837600937826
-0.8107589319362839
-1.0208487191032034
-1.1737302550473099
-0.8148340632339592
-0.021864320175100427
0.8651294629372355
1.508831267306924
1.665947345625049
1.4461693591892693
1.0539732138857327
0.5154547498729274
0.17049938852641935
0.013398694750337697
-0.021762253528234854
-0.06951265612875493
-0.2185579110339912
-0.4411620016346563
-0.584470531484955
-0.8070399019064256
-1.0416653559457747
-1.210361286222979
-1.028136689476478
-0.2111106038501036
0.6317432164887418
1.4758702574967404
1.715386323520724
1.5886612489900354
1.2070954142220198
0.7747427488322085
0.36347527138671576
0.06385514556716732
-0.013022803975231746
-0.09716383258526384
-0.23655023604390496
-0.4425947368137209
-0.6423358364085057
-0.9096960314885628
-1.1637055150451086
-1.3557023372381563
-1.4533403135073377
-1.1262128525169204
-0.25536304125464515
0.713252622831642
1.4017166550648334
1.4853111117641042
1.1927910725034496
0.6960021095270346
0.2397450085306274
-0.05184988873044038
-0.1456515080002354
-0.15318053
-0.18552447216472048
-0.3180106089798582
-0.5261165322186675
-0.748920573419248
-1.029469802302259
-1.2889933115720544
-1.346796247769067
-0.9215534882629403
-0.05260066801677121
0.8927424926150082
1.3684946802574016
1.325627783890556
0.9326222649938503
0.4172476663648999
0.04221809546307137
-0.1345789664174777
-0.15318053
-0.15318053
-0.21826574026337456
-0.3728422631453408
-0.5701059673970001
-0.8752086488969834
-1.0435231558297602
-1.177383968710143
-0.8359853221468966
-0.06511515505530474
0.9284633916924968
1.5619484274262414
1.5629316487580494
1.2714187604712672
0.8296055040026132
0.4283416204217769
0.07719337143305516
-0.008791748099994334
-0.01868281804316362
-0.052897180943164424
-0.20875045154307925
-0.38864532174956834
-0.6512487279918272
-0.8703746531097909
-0.6131542122953577
-0.3559337714809795
-0.09871333066649135
0.4678745596745596
1.1753950710644019
1.7181999428191361
1.7600237128535938
1.5115839717610575
1.1347850397806665
0.7239569802588557
0.3660872720906166
0.132155816611913
0.03659768449346022
-0.017741176209155204
-0.1463691711283586
-0.3492943828801651
-0.5892937342354928
-0.8339864123498066
-1.0539220170412078
-1.1068702
-0.7350269992993235
0.03404296944285207
0.9568925740577899
1.4728032734045118
1.4957331869906283
1.2276471255653456
0.8101530542419633
0.35620593567679665
0.00269244901637844
-0.17138753423836958
-0.22553101737604986
-0.30196137304735654
-0.3920164521666163
-0.5867634150520536
-0.8063688228656546
-1.0279890048971878
-1.253014036892758
-1.495141537807676
-1.466479783150964
-0.7984908076291839
0.30949297510125917
1.1222518022676171
0.9990946596067907
0.8759375169459642
0.752780374285164
0.49813208370428974
0.009555764814220963
-0.04905733716937525
-0.06358108467864915
-0.03601692060924744
-0.0938207895282114
-0.3227045987744282
-0.4550654741285946
-0.7073653154482712
-0.9149079267632765
-1.061947211627095
-0.9542518826873714
-0.2327096901864587
0.5808407835674245
1.3929831707019886
1.4292799670016763
1.1654909778927383
0.7841076121332566
0.264350558824537
-0.02916266312632762
-0.114283960609289
-0.15023025481932764
-0.21898541697959506
-0.36512098192185116
-0.5718542279087634
-0.8144528650020026
-1.0096622850352888
-1.2216222412303017
-1.3754070041005826
-1.2621331115295025
-0.5105884899724589
0.4640041882520929
1.4571841507690992
1.7787508403290757
1.6870333714875012
1.3764629874743428
1.0241337072179517
0.504040501177567
0.1910526540452127
0.0009816940256598449
-0.0201183238512262
-0.11701523993900603
-0.27982602534251644
-0.4900309813412645
-0.7814762446221024
-0.9727676910752113
-1.2082828825717977
-1.234366943946484
-0.8907647147784923
0.01951105360074734
0.866200629429012
1.4860192857445098
1.6051947298669154
1.4019815738950432
1.0099360201610028
0.5777220845421054
0.18772240351638791
-0.04900977372701697
-0.13429531807134626
-0.2061078289475683
-0.3122093134671861
-0.5074204169850012
-0.7508189559549678
-1.0001413359041458
-1.2224159768130907
-1.484605066266897
-1.586221752840391
-1.1104838478387635
-0.08564832821287294
0.8251816470890668
1.3151783901951979
1.396393193310621
1.1654257115372244
0.7525014542092194
0.3022833639972428
-0.006255260935137286
-0.15563820611783258
-0.2206462785745815
-0.28762178188299675
-0.4213573056394352
-0.6159285485541826
-0.8303225164121553
-1.05296469152405
-1.2566281234733205
-1.3624856174198112
-1.1178866045197324
-0.43840769593028195
0.4373343936438403
1.0451830894826333
1.1822597528231438
0.9286479325804611
0.5464727407614274
0.14839850352004558
-0.10941806964486445
-0.194018030302971
-0.15791355903246831
-0.18657526500252805
-0.3162885496770428
-0.4604420619014281
-0.6355975613295162
-0.8203859301312137
-0.9520424128224969
-0.9329537210607008
-0.392237173903224
0.34968078134202324
0.9864027469843286
1.2765900626484972
1.136836142431843
0.8454612114967002
0.42819419857638946
0.05493258369620291
-0.062215790342977736
-0.08570178008738716
-0.11434096986429815
-0.23580277574189173
-0.39823585009382273
-0.5292539597827102
-0.7928398981716975
-0.8867943701360231
-1.003732596961563
-1.024306110169734
-0.7715879682651294
-0.12370182842692176
0.7296144975530898
1.2748401116662795
