-0.94329378
-0.2215918483749887
0.8814726838969953
1.7355890375843028
1.8611024945568482
1.6219939036799427
1.2952925456107065
0.7796761177048616
0.5653696755999806
0.44925223
0.4510421214844203
0.49166416724706535
0.36488680312479554
0.13668066080383384
-0.09756447357457207
-0.36868172473036953
-0.5968878667426969
-0.8114497399910713
-0.9589191103301027
-1.0863108405546384
-0.9563642718232066
-0.32407008803033144
0.46794229738692017
1.3417707289450669
1.6163025595074576
1.4857412761530076
1.1336762565649807
0.7347382065729402
0.450770702509779
0.3252024506487736
0.3224614410033326
0.3377526500205168
0.24875839898788102
0.045071657051869496
-0.13707857693094222
-0.3985498435003385
-0.6372579943359333
-0.8607417467586829
-0.9485314731838418
-1.060597013493192
-1.168325074525144
-1.02231839027704
-0.4999891215392359
0.39328166159777567
1.4173080831162141
1.555066652355551
1.370680396097172
0.9954577977032004
0.5954804898307356
0.36327202951970505
0.25480007913354696
0.3031827146846328
0.30589668748779336
0.19725785138065077
0.02892484893523875
-0.17498690501841097
-0.4363454019982414
-0.6257035361924688
-0.773299152741565
-0.8722676571169546
-0.9562848949101781
-0.9562035292019858
-0.7124604090942981
-0.14404477312719272
0.6867217202648155
1.3367016898894861
1.4593722596944203
1.2749260322802607
0.9353843531824003
0.5740539827389199
0.34243697173651994
0.29344549587718705
0.29524292952847386
0.3116421951519438
0.1991945745075824
-0.0032605794132528412
-0.1900513863632044
-0.44033946347794783
-0.6593254071213961
-0.7473858604821177
-0.8369041362611888
-0.9207535349853031
-0.8897802679055449
-0.42586475835745485
0.22479979781236406
1.1985618569252714
1.5860463663908713
1.5283740009260762
1.1876570451698025
0.8115802060345085
0.5578596212751402
0.3586168964725794
0.33784855
0.3233910400504004
0.21762384076128227
0.06951370038393376
-0.09582914406783422
-0.3513046658350993
-0.5476992202523652
-0.6975953133618911
-0.8594641456280718
-0.9388758218790471
-1.0068308799670849
-1.020301219106954
-0.7774811087247265
-0.1383451723083436
0.7150106164190277
1.265768450989252
1.4370248705956978
1.247597669705773
0.9590107377027388
0.5746861155940423
0.37296818649384933
0.24504195583703298
0.2725687146082786
0.20208960349542493
0.08462669908111055
-0.11336486882650437
-0.3429625100559981
-0.5410089723155396
-0.755772722482733
-0.8684207920072488
-0.947441346229458
-1.0048803486263078
-1.0268465
-0.836445224885396
-0.31022786241139266
0.44387886086963113
1.128314404886684
1.3996780128519246
1.2436465757572706
0.9057681721806135
0.6068458820078515
0.4160049147175173
0.34845011237143975
0.33784855
0.3183206692947368
0.19886694023765794
0.05168173989156771
-0.16150826393960474
-0.3369549175789499
-0.5042653923085593
-0.643816000188313
-0.7255366898409552
-0.7866325912437502
-0.8873969113904344
-0.7622865886608023
-0.3353523492258985
0.5832392115630142
1.1099471616894028
1.3772448343804249
1.197378046951092
0.807637360309895
0.5780397174316395
0.3688328105278765
0.2978729198324811
0.2844745902189672
0.23951721231506173
0.14288829737642128
0.003926892550340198
-0.1504421394589899
-0.3494114627787829
-0.5109689628095445
-0.6069361923879008
-0.6726966179161457
-0.7468613834032322
-0.8004494754933328
-0.8540375598918546
-0.8744007124484837
-0.6481264364092252
-0.09112846349176792
0.6617359264889898
1.1847232553824067
1.258919255033592
1.0572013098383561
0.717814357984805
0.3616003318303972
0.2378381598309796
0.13405194303448628
0.10015590681102934
0.01076163798722752
-0.08955206833683561
-0.2968106462816984
-0.542321456111186
-0.7502385118683643
-0.9039292455920339
-1.0480303982583885
-1.1612094156592618
-1.248602379216041
-1.3324936331440596
-1.407328476252309
-1.5059444653364822
-1.5792430714289567
-1.4080145553169738
-0.8434747069429729
0.12083539314572123
0.9784649154039748
1.1315998
0.9855285160788907
0.6980938258737053
0.33423445602380686
0.10550065359178509
0.027146343672156056
0.057091324941030565
0.07275314744804286
0.019263421956662224
-0.17544678270380004
-0.38683255423230634
-0.5696495869946685
-0.7026338465100148
-0.8059094392007841
-0.8869547806255248
-0.9782577333260212
-1.0396073321690324
-1.0852874315533498
-1.1611117892202976
-1.2137500133406534
-0.8338903602591232
-0.013984017048163433
0.8657808390311748
1.3347302174361857
1.2514074972089273
0.9828973434894317
0.6509474864544085
0.3543184328711898
0.23864312828794562
0.1715113756238775
0.20037752089991082
0.14382301144125897
-0.0019712021121555887
-0.17368794193000325
-0.38057370937287666
-0.5509133003843858
-0.704213553113462
-0.8198555696133337
-0.8893110442383025
-0.9320170661125716
-0.9861244858471021
-1.0626264489447401
-1.0861397855721422
-0.7222040175194501
-0.08594569240523833
0.7134400533741689
1.3493429609918364
1.2613212219778631
1.0681401533587855
0.8115856124538381
0.43343236780780364
0.3362939762055196
0.27547632579918957
0.2537332471428034
0.18673647401629992
0.07810873906980931
-0.07134243099772501
-0.2759632118493677
-0.47374900311629004
-0.6255753554296917
-0.7591320326023583
-0.8661916459599699
-0.9490495128280391
-1.0106742115629608
-1.0966783569758738
-1.1690311618769513
-1.1010848145558148
-0.545796736926299
0.2897600733079527
0.9917528753705878
1.3194863959530692
1.2155809218706812
0.9467802628566393
0.6911090382366085
0.5099831325896629
0.3930929280401736
0.33561060869189097
0.31265084440406604
0.21088232699593254
0.02151618969984557
-0.10615205135055239
-0.33574969258003995
-0.5496751536813592
-0.6857162513326903
-0.7854654959311556
-0.8632048300171021
-0.8860266604794097
-0.9740994857888023
-1.0595923290876057
-0.9424765411655688
-0.3910608871001333
0.4814137613588162
1.0604350920429364
1.335101277207897
1.2387770159264198
0.9584877819477505
0.7349974324789854
0.5161174428035322
0.4301856028179299
0.40031376176924416
0.348612966171159
0.23915259768124714
0.06939224466518042
-0.06836634106177654
-0.24769759415073941
-0.4353672043714285
-0.591434988530713
-0.703992387982788
-0.8187912094219126
-0.9309471227453043
-1.0470779743463152
-1.106462481082549
-1.1064775503012017
-0.8343427412043917
-0.06846661494055006
0.9307931220891924
1.279781511235202
1.3208736777274626
1.0623749421659623
0.8834494623000172
0.6219333774429251
0.4639542222433015
0.40279084750034855
0.3731353638506414
0.30541248945268834
0.16765390372573272
-0.002628787117149728
-0.20471073916724497
-0.4021900119140219
-0.5765570511545031
-0.7333709201176642
-0.8461952011025757
-0.9422681510523317
-1.011927031388699
-1.1118506845349878
-1.184838199081114
-1.1857425855570454
-0.9413175025155707
-0.22083046219877456
0.7180775368292917
1.225106011284692
1.3653228278428788
1.2061820674131913
0.9717505860507512
0.7554505907808566
0.5302665014373512
0.45682214765884455
0.4417147828960298
0.4101143903427362
0.29922982163201806
0.10051389000006833
-0.12726715341543818
-0.2866356317310561
-0.4632954540321565
-0.6145667190546399
-0.723880286669259
-0.7912024023192233
-0.8526673034517023
-0.9294971502083916
-1.0055501595235634
-1.0131581047883478
-0.704857884980226
0.13829796107151593
1.0803633073205974
1.4726661902084646
1.4421359127013695
1.2604454593780867
0.9962245851824942
0.7621590907996372
0.6022371591540908
0.5441462326123354
0.5021289462327995
0.4170468162403488
0.25687084912336805
0.040822716078421514
-0.131037066001982
-0.3067313253070231
-0.4740365077665448
-0.6136897657038456
-0.7375417259773772
-0.8093635037527925
-0.8732207297076998
-0.9619641102053337
-1.0386946486403499
-0.9733241492268645
-0.5639349568990458
0.27023920296546766
1.1575642985669758
1.4490492276320461
1.3665209674727314
1.1182793337410648
0.8382094847853732
0.6144388558264253
0.48460765906510295
0.42073423983671887
0.3718814153791363
0.28328518177097345
0.1110172420377254
-0.10541731846432553
-0.3195321189984359
-0.5116698158125889
-0.6802101024979776
-0.8044167814518696
-0.874978988552381
-0.9283349427412886
-0.9910858714940362
-1.0442494920702872
-1.0885194114230592
-0.8306147379630904
-0.26732632895791875
0.5405494568605911
1.3058902501171124
1.478130163003017
1.3787984032219582
0.9991355042779009
0.8521930359184844
0.6694541943606668
0.5589811707250996
0.5070518372947236
0.4633281142363804
0.33526183811356414
0.1552885572247044
-0.04611471903241666
-0.25531862301913133
-0.4543370810459895
-0.6145393818740046
-0.7437982142571643
-0.8447762210446406
-0.9171064147875156
-0.9477347343459804
-0.946298162782885
-0.6637987812963431
-0.049373348367892755
0.7631143095740389
1.398122321860964
1.512076438305419
1.4144551199880289
1.1876082093111187
0.915953112971772
0.6796457617881612
0.5878067046368697
0.5217815134711917
0.4396513609752109
0.30534550653563514
0.10917350997522342
-0.06908401467068287
-0.27797243511086817
-0.42087480325479754
-0.617163447821882
-0.7665691917864996
-0.9109137290931615
-0.9766731988684956
-1.0307131607398918
-1.042446111565589
-0.736885748014424
0.10965243901332844
0.9897901064421265
1.3035582759324895
1.3539218788493883
1.1428809037685603
0.8487089384409018
0.5885792806542464
0.441157307580048
0.39355039
0.370759441527862
0.2754963980885171
0.11287982934359303
-0.03900474440530657
-0.225983605465817
-0.43706023144548367
-0.6093207573468731
-0.7334372969867099
-0.8291573689357581
-0.9101561319411895
-0.9900343712353655
-1.0670985733610137
-1.0650750051154765
-0.7297566111925617
0.01513327042205681
0.8644056275502334
1.3645881638326927
1.4878139847641558
1.319826699969975
1.0494967424205484
0.7949065945348824
0.5796900326927136
0.5116299999397593
0.4809190628996031
0.3794036220923093
0.21806648212720303
0.027958798445376992
-0.1521493666033331
-0.3538672957035093
-0.5995119869559563
-0.6945355294260404
-0.7774565825385099
-0.8820361200364072
-0.9650449965493636
-1.0373254717180407
-1.0010600657502986
-0.7033759181403517
-0.002836131000232167
1.1082719880826148
1.4885901805397221
1.5637464734278537
1.379166582645321
1.0358639396632678
0.9133339772651701
0.6892132028652392
0.6145851655777282
0.5772449297323585
0.4797617972818334
0.2821259879343772
0.07292207855582838
-0.1518711128642103
-0.35795745829188375
-0.5177390167522394
-0.6572554049948942
-0.8164353453760023
-0.8996514362342186
-0.9848849576691752
-1.064512501199237
-1.1844280975810548
-1.1443111257345375
-0.7324963954691885
0.15215496581730786
0.9955589203079416
1.474879387970584
1.4452053554804833
1.2400146504968752
1.0021617098372355
0.7310202707395801
0.5945853976699362
0.5577528866100057
0.5323794156615186
0.41377402382570844
0.2557295845365362
0.031113718068213503
-0.18941050803063283
-0.40814859756781163
-0.5427759937629109
-0.6938517493203047
-0.7984920979306678
-0.8955514968130007
-0.9508242779523023
-1.035540384216216
-1.065225111738212
-0.8913266317870169
-0.2876521087204029
0.5814367311450783
1.2231310341045356
1.4946341479619643
1.4274475872966197
1.1939165190922643
0.8801483496019039
0.6469708108832748
0.4637439182201167
0.44925223
0.39142978965606334
0.2594148168286905
0.04510837307503204
-0.2120205467523184
-0.45354006151218573
-0.6150438723562227
-0.7720524335050323
-0.8935850445804114
-0.980521984036131
-1.0691653794161413
-1.1825986783851763
-1.253706803801639
-1.0462671910434718
-0.37111214896183964
0.6231586374424973
1.392822754361004
1.5341934604859389
1.4069669391741302
1.146163303788896
0.8711503365169945
0.6374722833191047
0.46488403011367574
0.4266330650524752
0.3289237280292414
0.17970419371241864
0.0017748474421540317
-0.19730508911653347
-0.45882117397362276
-0.683824561581037
-0.8622204226539185
-1.0600829489481316
-1.1257019310789143
-1.2093652724228523
-1.328318546981235
-1.2894774725773954
-0.8895146755567878
-0.0021837149378621246
0.8242453819275916
1.444871578817172
1.406455581744593
1.1138559140822435
0.9191568422949307
0.6283484700676562
0.47623953322269313
0.41127014913352217
0.3903482167376929
0.32913747914486463
0.15624677054164157
-0.04082988138586405
-0.2456830242827421
-0.4591113133564185
-0.6682703963997402
-0.8081272373024145
-0.9704359821718176
-1.0614550746637244
-1.1210817666160846
-0.904786224809351
-0.3444586439755284
0.576031767510956
1.2300189732617417
1.5577967027303938
1.4598952591243564
1.2174781968683746
0.9358831136538817
0.7032473631717627
0.567148663990063
0.4886604388539967
0.409742536650017
0.27423308966870613
0.08287651965512692
-0.11352964151637839
-0.32647913627750313
-0.5325854107694183
-0.6988576981696425
-0.8666102956592219
-0.9744592025106683
-1.0493622816481547
-1.0918506
-0.802831782398577
-0.16587844484822822
0.8243187520555949
1.3467115112395862
1.4619613604547212
1.3116268539048732
1.0170974126251773
0.7808992023681851
0.5954335404990369
0.46123362725756
0.3891881938145237
0.29953578088111205
0.0976120604679444
-0.08990146147052702
-0.22842809864880917
-0.4811604047504079
-0.5989444882383856
-0.7370626737141808
-0.8675637995710916
-0.9427260610849636
-1.0753924802197605
-1.1480830834688902
-1.0264250227001384
-0.5072030834327393
0.45395858810732137
1.1236030875713237
1.4896683677740228
1.3672009910642458
1.0597657150188664
0.726919397536809
0.46716507408410185
0.3177593301194858
0.28214671
0.23296280491742202
0.10516764944271999
-0.1134030775431809
-0.37358312856322784
-0.6405513436274389
-0.8480570828418738
-1.0465566701989095
-1.1551414687485781
-1.2241363373623473
-1.2983704191224106
-1.383072113591117
-1.2548023328689528
-0.5973447995613183
0.31479662265070524
1.215723381575475
1.548837028559427
1.4741117965231907
1.2152180394397103
0.9401513589115555
0.678591913555883
0.5045222009021321
0.3969475103573876
0.3295283889241904
0.21747996432711042
0.05054634563931347
-0.1785920032182819
-0.4524731003277034
-0.6983726805841178
-0.8923682596652933
-1.0105332872776804
-1.1161523625911762
-1.1640701156883542
-0.9548661837767296
-0.16417522659333544
0.7455769842767734
1.3357609755095483
1.4082585769774298
1.2159193922600051
0.9015510769493696
0.5401436541004927
0.2902428806668514
0.23132953768569953
0.20869740495115005
0.14003468345320155
0.006991357166389288
-0.19119052520141802
-0.4377346607682999
-0.6981168311258369
-0.8959860080404857
-1.0902627992925913
-1.2417271225688322
-1.1024901875945001
-0.6082658686559446
0.24957518288816505
1.0967926857200456
1.3554372495231979
1.171676006608713
0.8379430212670248
0.4961727005355577
0.1736556134882719
0.014591178406082393
0.005636221969714745
0.025704889837426297
-0.048071319461065215
-0.26582364016801013
-0.5229080701408197
-0.8243507948790653
-1.0508493210896654
-1.2411551642920158
-1.3833499647692133
-1.4254581829592083
-1.0488523215505445
-0.1998847879702721
0.7016872160172598
1.3114383242860588
1.443937524907375
1.0237153106201295
0.5652463104790517
0.31268890331295035
0.10065484747826833
0.07473071324994358
0.11207094668105111
0.07823709247651744
-0.044991904483041446
-0.3735061836671594
-0.6622304262331796
-0.9087547913239672
-1.1337650676327864
-1.238441464388853
-1.0492304895169369
-0.30700697491015866
0.5903142383126384
1.3204151076115878
1.4704191178332469
1.1926268832468823
0.8092616407655402
0.4166577178480495
0.14129199917596996
0.07647040647951123
0.09383693286345539
0.07225668214844659
-0.03980883482307064
-0.2633830731222529
-0.5369298969039034
-0.8210645396646616
-1.0823501662672173
-1.2911663031754437
-1.3989073131608187
-1.1166877061559068
-0.3666380971851859
0.7929777637721869
1.627340737143352
1.7161209631385532
1.4714885518579692
1.001501292575068
0.6819223015825417
0.39458737352845785
0.29038069090403673
0.28214671
0.20222371225251978
0.061760452437593344
-0.18855112859457532
-0.5755284776399789
-0.8461192114311377
-1.1193203712081174
-1.3094010479893619
-1.4792066632482794
-1.5981129657065996
-1.5199883003416919
-1.000650384793639
0.07845857795317346
1.067283376293658
1.558872884224857
1.5334662579163072
1.0980209312852365
0.6650901127596336
0.20935351465533292
0.11751445750402334
0.12889329247344486
0.1133964219039315
0.026938561060432048
-0.11769039859116265
-0.41700235867676405
-0.7442045759682346
-0.9889816022471106
-1.21307368273687
-1.397767207117459
-1.4775661221309278
-1.331688155835563
-0.7709424813271627
0.5401466375950408
1.4158572644337077
1.7080507663041766
1.4607270888680373
1.0885340529629914
0.6594534677975883
0.15121046073623295
0.030472574551259325
0.04710630790670613
0.01940905419291896
-0.13244323088093796
-0.41848611811061615
-0.729661676795593
-0.9943888394024762
-1.2173499391297669
-1.386356813203829
-1.5294684887995733
-1.552905172913623
-1.1762234565280947
-0.18777408693983666
0.949919155004892
1.7236764116268721
1.8581188954513292
1.4938320852149223
1.0832023152748964
0.7001926623175588
0.41070291240712126
0.2888805259295481
0.27458911978889555
0.16240770116948539
0.003813497421166767
-0.2719186127676996
-0.6585841305856759
-0.8986536051922581
-1.1969225316118441
-1.34591583384327
-1.4468159740863573
-1.5452405704034613
-1.4475428023827532
-0.859973902390278
0.434386743239948
1.2723093162585508
1.6869597217487784
1.6565469909181971
1.2883270792074866
0.8964217853967191
0.43185266929701255
0.29604567976950297
0.2825978178294912
0.26074028762198637
0.1057124303343174
-0.11034968081805842
-0.43681346032649193
-0.717029377383475
-1.0618565358767325
-1.2072836603867065
-1.3620262961550358
-1.4576767296424642
-1.5615166991088947
-1.5997677218767525
-1.4108351498938099
-0.9439712676476291
0.38610074148228635
1.3223451365419718
1.7927950170993334
1.735333887333978
1.2849864297291982
0.7924734929655067
0.42766939460234543
0.2458027448843153
0.25118035396608235
0.25180205948110107
0.13000249539842834
-0.12720594968564142
-0.4531263479077257
-0.737395759337622
-0.9626333905554456
-1.1478036581003062
-1.271122470779955
-1.334240605064853
-1.2468867507253076
-0.8173493768870337
0.20960157870975027
1.168389471755182
1.7633295700552218
1.7903712661143185
1.3959006427692857
0.8363991432672009
0.4506847031004251
0.21321498001638362
0.17074303
0.15698767752750306
0.06885964945560917
-0.13837751469505397
-0.44334874202274965
-0.7405121503843325
-0.9674819575907827
-1.1692229948829271
-1.2975169474139527
-1.3559244876877041
-1.348873399343955
-0.8903789257283146
-0.3393445828205165
0.8333936710132384
1.6629471162772798
1.9823868358866021
1.722160807499393
1.2666830297245981
0.829503106563541
0.5721080649682586
0.412058447876844
0.33262957150687983
0.2238123521409758
-0.021376576462914187
-0.2768767337093895
-0.5159864064351164
-0.8229761747952227
-1.0258434858098624
-1.242681416968158
-1.3142452589016163
-1.3361560629272033
-1.2012308141451233
-0.9159702995106243
-0.2997360930104398
0.8855153801644665
1.6294117612263062
1.718203390559237
1.5008655650767628
0.9160024376199208
0.2839529296583251
0.11244563521049039
0.009236161771877721
-0.09397331166675718
-0.19718278510539203
-0.30039225854400475
-0.4036017319826396
-0.6991521305327961
-1.0018447686014849
-1.1344895778917379
-1.267134387181991
-1.3369606567887362
-1.3734412399221871
-0.9164918242997723
0.41031349527752664
0.791300697796273
1.1722879003149373
1.5532751028336838
1.5525308768838495
1.0255721448019868
0.7041354200409786
0.3137894906128533
0.0917673908623369
0.005458904437045794
0.02075010743624649
-0.062241214848851804
-0.3062041665736537
-0.5407154494746161
-0.8267314741387699
-1.0618595617695552
-1.2149355585365076
-1.3432913377157396
-1.3889085
-1.3269578708574936
-1.0141229769263596
-0.10570383342934397
1.0204321289213236
1.7371436396986517
1.8244789559691224
1.465845485571129
1.0291485253635204
0.5877862267631844
0.3001959165965593
0.1992384576740105
0.1582645579275691
0.0907084263754924
-0.04618537496371296
-0.31632597413558955
-0.6315987739772614
-0.8899516503984515
-1.1179290458705593
-1.2325885548999194
-1.3521035559549257
-1.3844979962244346
-1.2754909147753968
-0.7231430485375425
0.3648950509013805
1.2582758858326497
1.8048182614278305
1.6324944282792848
1.1656197312220298
0.7370528062429924
0.2672898425532312
0.11805137138482982
0.087190266
0.11167863683393707
0.029721259708450846
-0.15458102953356484
-0.5105198507063456
-0.7799297205069816
-0.9769274711624815
-1.1770769329017687
-1.2612474512700829
-1.3301616369001992
-1.2509571049902946
-0.7427302248272838
0.26416095757796587
1.2926713363998628
1.7276020786569184
1.5887101551614262
1.088119717544001
0.5646727981959613
0.18332427374384766
0.036341512388941594
0.0718130768208622
0.11006404765271899
0.037054172359554716
-0.1451910846642698
-0.3919489500585472
-0.6490616357548932
-0.8939963974181724
-1.059282856331663
-1.1695678659980235
-1.216584458730642
-1.0946515690622343
-0.6331221326662528
0.36177037721306027
1.5224475786182032
2.1438465786335152
2.180491797421624
1.7137880619216475
1.256182370612688
0.822750966352212
0.6014809091526
0.5163631867834945
0.4326054153286543
0.31013803037502374
0.04036295622058933
-0.2747766339455293
-0.6640161150663632
-0.9649540106176457
-1.2083725194051542
-1.4194188995754702
-1.5197925798148741
-1.5492640652435277
-1.328702651053323
-0.44855439764296345
0.6590725089782329
1.734013356306135
2.0320697329429955
1.8343941666861632
1.39474529917851
0.9271113478115379
0.5565330999813245
0.3570712190719037
0.335060853597526
0.30527772234054384
0.12597289647370885
-0.13868705150648442
-0.46517222796211444
-0.7932560610494647
-1.0906865380790294
-1.3254251496975524
-1.4109581676852978
-1.5003122
-1.5003122
-1.0932176238166096
-0.11824064141153505
0.953473111669214
1.9335810044295532
1.9749911983287998
1.627522172755045
0.9772883380960018
0.6034017808302308
0.23023995065835187
0.14774763821650766
0.16547385567361625
0.12792875351960964
-0.10939086257199492
-0.37198538076200843
-0.6482539303629496
-0.9266040084326258
-1.1077556688526247
-1.2991023714011187
-1.4212427996548367
-1.4722730479012731
-1.3627628671059024
-0.7198894670469879
0.6942355678446192
1.596741696130669
2.2083721567742645
2.0666007110591544
1.578146387294953
1.090214339426957
0.6808682419084979
0.4320437143965608
0.36016629569336317
0.31211369682590107
0.19354949402985414
-0.04151612976204508
-0.3530969658514962
-0.6906606337664735
-0.9632073800210678
-1.1782816590203131
-1.3455461650309795
-1.427297204821277
-1.4181619928336067
-1.1477046542487535
-0.3571629695856636
0.8962209099131483
1.8441348337667312
2.060645714401056
1.7585372280667249
1.248463174029987
0.7961564045586194
0.44148067879701725
0.2513290764727873
0.22644487
0.17638327501110285
0.03891546223173241
-0.264526227502027
-0.5775900248196659
-0.9109116205808111
-1.1071241916370593
-1.2648793785878873
-1.3943714472160538
-1.4783835898335702
-1.5243030854339823
-1.2758060627769805
-0.5322694783707361
0.5426871593504418
1.5657005733283884
2.0161898114939847
1.6871304577179158
1.1631914950290194
0.6434015708659147
0.1673679254581333
0.08319742605063804
0.11504119
0.0707118779876275
-0.05382630949550189
-0.3306931769537811
-0.5478317088414631
-0.8905229755644206
-1.0742011063546235
-1.2457798307768435
-1.3414302642642533
-1.3847406346411455
-1.3650411481107774
-0.8458679281447604
0.07373973396222792
1.3848833254999926
2.0660076988641727
2.087441532653257
1.7250218877619674
1.202034510583346
0.7389808640560183
0.4330012894428378
0.29684829015028874
0.2776730397571545
0.2552599365237992
0.027236084258373094
-0.2447117654094028
-0.5627773815239728
-0.8795348260226612
-1.1025329425239838
-1.244452691724681
-1.3319403883262426
-1.370532342966562
-1.2115727896298614
-0.6743929826565308
0.3790228693111689
1.4714123323722155
1.9163840142420936
1.801287162940218
1.3498205300169022
0.7817494394201906
0.40125910049471125
0.17297750922298533
0.188268709996368
0.17529872260986024
0.024822989327080748
-0.1435639200802571
-0.48196894056246736
-0.7621153740884331
-1.0576672837982444
-1.2425049546918607
-1.3864195697704231
-1.48309564293856
-1.5003122
-1.1855768610621145
-0.39871391648442833
0.6961542666544542
1.6310530532313305
1.8763922569761367
1.594956957836693
1.0954124705671637
0.5985857095280929
0.25569585046922727
0.12092652288934604
0.16152024373032586
0.13317054934116607
0.008253796992590573
-0.2583953004088344
-0.5489502355144922
-0.9367300585191698
-1.094209228286173
-1.2281778302110098
-1.3863883469191824
-1.2945492732802075
-0.7725051135544819
0.4557082535547807
1.358807640782436
1.85580425994447
1.8553271551621724
1.4726796680768994
0.924220862496902
0.5147564239454725
0.2380187509457322
0.22653886880181892
0.20940743716316818
0.1310399243635406
-0.13988353800227427
-0.4244778295002792
-0.7077501673261035
-1.0364642651618485
-1.2048039350637072
-1.3400058753424682
-1.3976835023752427
-1.412178729097617
-0.988537715590331
-0.07249029626950948
1.2260814461578413
2.0218846181020065
2.1180178639025495
1.732229937668443
1.268626131565538
0.8378695937049969
0.5310251723734314
0.4100168462703409
0.3796080710942374
0.277772790995197
0.09326954919847463
-0.16903329576249906
-0.5341264259050815
-0.8621803855689596
-1.130680408756913
-1.3272770161097571
-1.4824182333426419
-1.5738652324558795
-1.5941716018137226
-1.5426576825636287
-0.8266960115317903
0.10929962220815387
1.2407424606344857
1.9141982787280236
1.753705504787152
1.1579388706583986
0.752092144044711
0.3484787717665717
0.2173830077504553
0.24647493011791138
0.24450833029690355
0.10722971988313226
-0.11217883719574968
-0.4395974144086797
-0.746639281418035
-1.0404652074861025
-1.2134315007250152
-1.3540379326886582
-1.4298554437555329
-1.4581947118363345
-1.1205255237219505
-0.15348194447025243
1.0292651861871351
1.882103146513054
1.9534396978486246
1.662897832415525
1.181825504889042
0.6604699502164513
0.25510795315820683
0.1403091317190946
0.15649050144073806
0.10827988165084484
-0.06475311028918446
-0.3173105215771899
-0.6686489798030681
-1.0007912637443295
-1.225444908517993
-1.3980058263603061
-1.4439253219607442
-1.5112705318752317
-1.5318189104640172
-1.4134550054411483
-0.6572981030609962
0.4673803048040793
1.5247236227257897
2.1443435694144966
2.0932024808258554
1.649298387598955
1.1412177098794372
0.716450842032892
0.44998902879286884
0.33403324402275425
0.2826439287419717
0.106588458293364
-0.1527145570858373
-0.46609258311639556
-0.7995675003628083
-1.1080233443101586
-1.3146612393882215
-1.4305406367359776
-1.501050801609355
-1.5240105494095693
-1.5432271352084919
-1.4624317721782776
-0.9274609371220103
0.1647888293960868
1.0366077438137649
1.9128985838723123
1.9398338752806308
1.5593364577085391
1.0911514808409732
0.5740046044261959
0.26379429384370495
0.2153045
0.20814424819531668
0.11577342034789362
-0.05301261400490735
-0.338601869160713
-0.6190747475532137
-0.9149284296736633
-1.104334470262137
-1.2605529949090455
-1.357811630841181
-1.3869242250248213
-1.3889085
-1.1369584543748483
-0.3097076216246901
0.8701147311353588
1.832409223278673
2.1608366741816454
1.9154796420287752
1.3902101242535982
0.8434195031287444
0.5106947642552915
0.2913901205848519
0.28214671
0.24994455693520462
0.08155764175717742
-0.25055238316548445
-0.5031097903315859
-0.8369816481188936
-0.9975365728797828
-1.1885598274817473
-1.2951215532418225
-1.379399855473366
-1.405559219243768
-1.4422947827488728
-1.4331361667364693
-1.2490442027660418
-0.3731582083854459
0.737965852179404
1.9165355541742508
2.312503910302949
2.076711086456455
1.6054855198664257
1.0463356088181655
0.7359607807964207
0.5730353682390776
0.5347808272387875
0.4421715303432425
0.2352247207971132
-0.04516597636420874
-0.3667796781044593
-0.6515738926957413
-0.898500748274225
-1.0855230023847358
-1.216376243433861
-1.3054109445529563
-1.3419266322730241
-1.3792536884552422
-1.3889085
-1.3774557460391992
-1.1948258562613454
-0.5669484796784692
0.6499190275759049
1.842339827149517
2.1561232885115458
1.9217579185860292
1.4673189478844901
0.9684042080680091
0.5805162469511339
0.41358711830004213
0.39355039
0.3413929509280221
0.18731737923442415
-0.07013293656468732
-0.41209440330156394
-0.7002245388810118
-0.9396393795900349
-1.111346205755776
-1.209436402286828
-1.2661585451509958
-1.3109935057858664
-1.3374992712400442
-1.371509751265283
-1.282649354844524
-0.8587942906758874
0.040718235898662414
1.617864614111932
2.174816113593746
2.3551013344662053
2.093630098477492
1.4293851950161354
0.9909891188854643
0.7818999833855775
0.6630437201381757
0.609563031299707
0.5028914849606155
0.24602962277843302
-0.08585241945775843
-0.36216298711508305
-0.6541384803823131
-0.939784758200849
-1.0966764526679915
-1.224399965366233
-1.2928825579039076
-1.3419506356809559
-1.4017133538320674
-1.440594966759327
-1.2909276339554276
-0.5622357878505845
0.5750531753274502
1.6804141303129354
2.13736112580615
2.0821495341834284
1.718148830537148
1.2314018309329215
0.8350184511368475
0.581546301410954
0.44925223
0.44906442239259853
0.2824886304700461
-0.01612341876856445
-0.19980153744036935
-0.5258971729777049
-0.7496612945915829
-0.9787643866644329
-1.1470328279391424
-1.286502662887384
-1.3539027867988285
-1.3889085
-1.3889085
-1.1510326529083534
-0.35954754230043795
0.7263165293769123
1.771534607331944
2.028984916265449
1.8817445480201391
1.4409684539742975
0.8969445467100483
0.5519008905788481
0.3738017528257092
0.33784855
0.2678247093529291
0.09630175165548135
-0.16557938678811834
-0.46727840770708884
-0.7220645621159019
-0.9158286201862068
-1.0927795025122198
-1.1973509937439322
-1.2603302663736369
-1.3021786843269563
-1.3291992743797678
-1.1887410268235779
-0.46431430162927756
0.5812074919551149
1.7393682692800216
2.1510219676230036
2.075881386113923
1.7855950180255646
1.3345054906847076
0.9425135734067334
0.7649961192558392
0.7005329084071609
0.6403999114271604
0.43112484447162003
0.14690498609973746
-0.10029817958725706
-0.3823775691159087
-0.6760335057056645
-0.8777006849936096
-1.0263349307518215
-1.1803101406666363
-1.2535263004286876
-1.318020708947928
-1.2960143471360082
-0.8842535538945446
-0.05945131523279523
1.25386838847496
1.9561606237105322
2.0600686482644877
1.8225902140743124
1.4331556096559948
1.0435340382785157
0.7515122010563864
0.682632908192919
0.6492924910413186
0.5351232968826316
0.32002161485407166
0.030064072292630167
-0.29120534842413226
-0.5508650895996454
-0.8672433945491257
-0.9834937641224543
-1.1135837780911604
-1.2277780693696905
-1.301644639170767
-1.2785633605268663
-1.024521688955608
-0.25351096830895403
1.0372742619929378
2.1756450604341215
2.1679765051634767
1.8567803366420046
1.4399732087444495
1.1153305745991673
0.811948938645079
0.7360455561010517
0.6567709580416766
0.544134932688105
0.26139286279265983
-0.04992200984486492
-0.3209473395459125
-0.5734392857411639
-0.8069906159815818
-0.9989955932222633
-1.14830982848691
-1.232942012646214
-1.3074219230379551
-1.3637080153312795
-1.2950813567431387
-0.9121845737812797
0.055813676685755986
1.3338918778409894
2.0569374871101056
2.232051153340529
2.044553331171529
1.707488100844368
1.3171720584886064
1.0672042962841655
0.9180766990791472
0.8047501429834207
0.6624335975720996
0.4347067667115413
0.04717196494483772
-0.35017470138712403
-0.5874408995359468
-0.8949053544725241
-1.0908101952455107
-1.1799384779957176
-1.2962401203636114
-1.3332067
-1.395570591903902
-1.4732892939340614
-1.4968230354292724
-1.2562122984192443
-0.33143282268184326
0.8247054064517059
1.881885056408402
2.2573830019706564
2.0428377812418947
1.6334536128145998
1.2665403760046556
0.9931005439193717
0.8440771129788375
0.7697012033126676
0.7099478642339322
0.4521883463528258
0.16233068153696883
-0.20578462137957135
-0.4448427782776532
-0.7288705670042634
-0.9066199489943985
-1.0515974931454766
-1.1361260744167785
-1.2585934511265358
-1.3823334938404734
-1.4240004509049116
-1.4370270138979373
-1.2059850977815005
-0.20449939878995188
0.7203962997783122
1.82026349067278
2.095575116733043
1.9542959377290896
1.5396535049313975
1.169019767879066
0.8108938872455848
0.621377551361269
0.5317460434833181
0.4032059887718896
0.18504354771306214
-0.08003086432110582
-0.39151068114197934
-0.6750774564390861
-0.9020613948073343
-1.092436713009557
-1.2319911707713003
-1.3399387425236147
-1.4142727035704845
-1.441397375658905
-1.4724168888425502
-1.49101
-1.3892779030663385
-0.971932022518865
0.13013663032161693
1.2668596696526275
2.15895572931928
2.0680605204086917
1.6129845343836162
1.1649550503358348
0.8439904665861198
0.5848589792238026
0.5170121599074143
0.4461307483655652
0.31915526661414173
0.006269525719403146
-0.25153435623975684
-0.6134979804257457
-0.8135783293480606
-1.0514536390985465
-1.1674695252590732
-1.24963598366619
-1.3311894936713584
-1.3805212486936451
-1.427956121118724
-1.441633812458935
-1.4176074055620338
-1.149359385363678
-0.40940473092322327
0.7615432559997377
1.6752380369873618
1.9154230046130774
1.7372203071526662
1.3551682889983714
0.8592055330838
0.530100277783633
0.3830839894740872
0.33784855
0.2837101671315092
0.12065932051901893
-0.10347171181457304
-0.39437139820702205
-0.6675283204957468
-0.8979788962915843
-1.0717300865728794
-1.1859955773591369
-1.2682067800167225
-1.3156990741954657
-1.3332067
-1.2928101382494408
-1.1112790811158262
-0.26176783544177884
0.8173084777591642
2.083104286198882
2.188185241339576
1.826105063643566
1.325650004204673
1.0052501485084495
0.7005285638611618
0.5817729279648425
0.5294804953992536
0.3500835059811829
0.16644042632688116
-0.16545405898517165
-0.4492434746570787
-0.7170410001481735
-0.9263271563251452
-1.1008213715076425
-1.1739478971407074
-1.2100811525601562
-1.2105650996396375
-1.063843660377903
-0.5759608562956802
0.40364045281025585
1.6704082231132773
1.9044442467853377
1.8449314490645967
1.4564675803921128
0.9994014577405517
0.6231239280931836
0.3865784812852516
0.2924422615504359
0.22691730114677527
0.058046999363951704
-0.08391759709556736
-0.39332503430720095
-0.7309022624861571
-0.8815183094543821
-1.0983012089994033
-1.211031635135898
-1.2756915610160344
-1.1246803728376944
-0.4375503004955634
0.6143077922083227
1.5075708010854587
1.7601809466856455
1.4756717745233856
1.024382974444697
0.6188781849409708
0.1737166141747239
0.07269365378138613
0.09873996329590254
0.06430031274226475
-0.038922919277412496
-0.28708104487985125
-0.5295682503560023
-0.7925635994470992
-1.0077179988203788
-1.156956433716077
-1.260954435119978
-1.2410436847722282
-0.6900093418644684
0.4626430620885119
1.249602506737926
1.7526747419968927
1.5617874520202795
1.0489844617930375
0.5453191897181168
0.15394642400236697
0.026407096436310982
0.05086408118264693
0.046041563283665224
-0.041611893594762535
-0.2475302974160764
-0.4891484039894516
-0.7730775920799244
-0.9830944746724577
-1.1582891734530874
-1.3092821494235913
-1.3316953170371586
-0.8754541937013122
-0.11637453057156838
0.9325177313969928
1.6596427924618202
1.758154979336098
1.3754275640075275
0.8347355401499166
0.374783748179382
0.055872753721789445
0.023732865516168638
0.05114691189324502
0.014944658749494702
-0.13289190679292565
-0.44938579108528287
-0.7453627306738801
-0.9889423102289618
-1.1564444978446264
-1.2672307197941735
-1.3576660614248508
-1.3716953761437836
-0.9967164937920018
-0.09492039943753783
1.4504745187681818
2.0550969290344825
2.0540572070132463
1.733884938804671
1.3026458971385841
0.8051536870900755
0.48466018677272693
0.37041497523383304
0.3892141168510302
0.29207572524874087
-0.03679435820156601
-0.3314688896257313
-0.6034620191062343
-0.9174783790688317
-1.053207990667734
-1.2582295969619441
-1.35006867060087
-1.4455457510043561
-1.4903720057562195
-1.4298311100825918
-1.0064294177975408
0.20963560816625473
1.4558535135853807
2.1074926752109584
2.0023518431382046
1.5218747078068935
0.9902987219190442
0.5334182400007825
0.2865102214198275
0.22073017634665318
0.1732836411763691
0.06398661467471549
-0.1465648349175824
-0.46323839985907045
-0.747068955943265
-1.0265756092652876
-1.2078350338544817
-1.3207282309437094
-1.400930109774158
-1.466015222903436
-1.5003122
-1.5003122
-1.4370493961881612
-1.1508167642303717
-0.31765605980356826
1.1168222620298782
1.6984205978172844
1.7723199680122268
1.3880129116145892
0.8140187879312878
0.40117801336255143
0.13483437258478081
0.0036375053
0.0036375053
-0.029826626115951296
-0.16951819425704806
-0.4172435600965638
-0.7688907003930163
-0.9527762662071239
-1.132351524244771
-1.228556580371653
-1.264554846632021
-1.291862821958781
-1.3243162391929348
-1.2281960765596942
-0.5815781459517889
0.423183005398482
1.390126978805231
1.9337153413391968
1.827876149211067
1.3950016851065357
0.5275310642407701
0.24594934482811134
0.18783232244674986
0.12971530006540088
0.0715982776840394
-0.022401308446097203
-0.26896471087412366
-0.4410192727300485
-0.7107277971216636
-0.9121695695022809
-1.033026127833013
-1.1609183944663695
-1.2099602079362195
-1.2678521482052958
-1.225465971083116
-0.9578254160258125
-0.20073588898918765
0.9095865662141028
1.942989022525163
1.9967256195700986
1.6187061534166038
0.9385996753560859
0.5725040449535481
0.13433945574475673
0.059339345
0.059339345
-0.012896283357525736
-0.1324477744108119
-0.4635356135611745
-0.6932241927120399
-0.9354041536580503
-1.0811295397180214
-1.2134773783662387
-1.2688836874765215
-1.2775048
-1.2558866639286852
-1.0137814433335532
-0.2951977121914839
0.661500211644972
1.6113748496103566
1.847487412498211
1.543614628180037
1.0056409221882487
0.5775567706632306
0.24311684952157114
0.1770120728603166
0.17074303
0.14170694300344217
-0.00369172861757279
-0.2475278854123146
-0.5298796723300483
-0.7951281596382054
-1.0191529178727807
-1.1731806246047125
-1.2627010684977746
-1.3121824589428652
-1.2930709188198095
-1.0684334581940924
-0.23421335558625178
0.9213360802916402
1.7524938789474973
2.0323365371904663
1.797924332044024
1.3227915733013684
0.8483050537964811
0.5125738051311306
0.3654834814130116
0.319999300388858
0.25657445925155653
0.09219675633973123
-0.13868275217431858
-0.4241452218351486
-0.6940036099443035
-0.9751716084295103
-1.121651113640607
-1.2083490310062255
-1.2563763919035802
-1.2775048
-1.0626171913441542
-0.2662755230549535
0.7642832496198413
1.8578357700105559
2.02088904516177
1.749908478086823
1.1630489525301424
0.7839647735602109
0.43589058494059374
0.3206080024570893
0.28214671
0.28214671
0.11415831125371426
-0.2183527205790382
-0.4869819594490376
-0.7791114310855503
-0.9755235448710118
-1.1111666130694933
-1.207892276975089
-1.261842809863904
-1.285389622603927
-1.27303720497957
-0.917815379241399
-0.013719703559226026
1.0242364873491039
1.8704061639473337
2.042254364766688
1.6685110068180942
1.182790182940421
0.7114508563755201
0.4597165037132737
0.39355039
0.38281949535060433
0.32802032649653073
0.12138244790603972
-0.17737032243346063
-0.43987958528756593
-0.8014961146072673
-0.9369587173105278
-1.0956358709452294
-1.1933371731735194
-1.2703473572554151
-1.2318765490987458
-0.8328683084126961
0.21164346850451538
1.3065252420123943
2.0285689694547524
2.1483055640404256
1.814066171171954
1.3576015947508555
0.9303166313178841
0.663914736735756
0.5702202478538043
0.5242011571274262
0.38892846356225935
0.14190778904384113
-0.13329353385017192
-0.4275064233318646
-0.6979081441194945
-0.93466426406145
-1.1007424806703827
-1.227480322456134
-1.3144688369046447
-1.3739963399141106
-1.3146844346764703
-0.6937286566902694
0.22014212986252024
1.5496224811586117
2.133749223066085
2.0320362599491797
1.4991359184396766
1.0340454998451563
0.5764101818222636
0.40416956019572403
0.3383116589708815
0.30024744906491485
0.14825675919577866
-0.05033754146011943
-0.3848257759260874
-0.624109046813871
-0.8661192986943247
-1.0579688753258123
-1.192682370394471
-1.30139736942034
-1.3702766952590402
-1.43915602109777
-1.5080353469364705
-1.5769146727751706
