-0.80358216
-0.8974130788923196
-0.8489243466999299
-0.775673834618517
-0.8804984571635264
-1.0489475252183322
-1.264718536748485
-1.4524536189795776
-1.4874690169290412
-1.4046017940264872
-0.7898752937464685
0.5690750210217412
1.8414736146135056
2.3852361471019665
2.110921458278933
1.1938663512172243
0.1845900218829779
-0.5298127486797697
-0.9158891058584241
-1.0238166
-1.0238166
-1.028966763115173
-1.0623315082975284
-1.125195519678026
-1.1496649
-1.1496649
-1.123136610864213
-0.8369706281425329
0.37074674135529007
1.6674304202077077
2.756816729579819
2.8609086304033378
2.0676705552502446
1.0615555925534839
0.17926578847859645
-0.4457837645440877
-0.7660131215163132
-0.8378359405619447
-0.8799577234943986
-0.9461500093754184
-1.0317797697546096
-1.1352848038067238
-1.2183142980099386
-1.2376584458767153
-1.0262525912894545
-0.06211879921922375
1.2072192368465746
2.5220422149153547
2.76837094324584
2.0833506895831344
1.0970126955672062
-0.07390895459877743
-0.4543522197079729
-0.6879266552958018
-0.7035387050921525
-0.6501104160106653
-0.6918781065615446
-0.7718814432572987
-0.8813520332301656
-0.944533596200072
-0.935269237688428
-0.38030267693399356
0.7097185271649576
2.0344370412940123
2.8431443309895488
2.561579566670874
1.626049248498144
0.8765680036762378
-0.0629014864234429
-0.34637671221853394
-0.52042359
-0.5261047144388152
-0.5688442571270294
-0.7512049225834737
-0.9332668422791864
-1.1075759700899404
-1.2178453077421911
-0.873502957817567
0.11555091964632684
1.577868260063792
2.565166836540995
2.5980443445833057
2.045246122608116
1.2407935583198446
0.4350595337899923
-0.2365179064891727
-0.5527407122278439
-0.6266970502137202
-0.6650904573456787
-0.7823132378952171
-0.9665873326948815
-1.1749891172532794
-1.3964970062165871
-1.441372193357602
-0.7532120321717248
0.3139093602367796
1.8471997419235657
2.433238710403736
2.205011738320291
1.5603618955698626
0.6548649250178799
-0.2499143006651986
-0.9175172410731093
-1.2149188235342518
-1.3249811274583538
-1.3751561416719311
-1.4629405705774008
-1.6609363605275824
-1.8834498858879536
-2.0239048504699086
-1.927077119591257
-1.5959177974563192
-0.9747350738152917
-0.4396914918255065
-0.2557164629236577
-0.49051783696755885
-0.8247166136499559
-0.9742489983854971
-1.00835582644841
-0.9731090278928557
-0.908207129171132
-0.8282010598012013
-0.7922796776714849
-0.7601601341146267
-0.7173575863291802
-0.7015241750697769
-0.609669945904194
-0.15229284561689493
0.7963062316891083
1.8361131618341373
2.2760228154297715
1.7248585588523926
0.8001610787509671
0.08969933246959798
-0.2688090375888098
-0.4422417825027651
-0.46089438546703526
-0.49787036844231514
-0.52042359
-0.5291791615020823
-0.5617679823778708
-0.5751008914379212
-0.49118445223190776
0.19588320285482821
1.012888148753068
2.1389593984963975
2.2888093198653414
1.4137874798326593
0.7754107036530958
0.023893353703821174
-0.5022464290751714
-0.6197983527293225
-0.6875834490821975
-0.7176398123747375
-0.7438433105903606
-0.7721201
-0.7721201
-0.7721201
-0.6491934873620815
-0.2190897854319997
1.0366777873797637
1.832839493084995
2.0004995109026744
1.4194190616807516
0.4209440195421265
-0.058621613769556366
-0.5491317276194747
-0.6409661710752138
-0.70919597
-0.7103761744623035
-0.7571565924637988
-0.7762285494022731
-0.8116600187199895
-0.8324162396915379
-0.7176456166665159
-0.3880652072668723
0.8322528237435933
1.724352645699693
1.9961713156065746
1.4261241231814699
0.5140317507102964
-0.13530644596770564
-0.47685753965105254
-0.64627184
-0.64627184
-0.6632880426471898
-0.7006301633621589
-0.70919597
-0.70919597
-0.70919597
-0.6827398944621914
-0.519192040655443
0.437777617966276
1.3219090788905374
2.3233625870454566
2.2769535717658838
1.6793512406192894
0.8342640771616321
0.06731178380354016
-0.43191289061827587
-0.662328390015365
-0.70919597
-0.7281597688234083
-0.7825835183162301
-0.826867350139142
-0.83504422
-0.83504422
-0.8232483074826452
-0.5563897446682322
0.20041296171554215
1.1879975435509962
1.9849494569982864
1.8997844778095598
1.2460047864648764
0.3800795081453364
-0.3648765732591426
-0.687743338550858
-0.8044949134317203
-0.829378810787601
-0.8433085842915632
-0.8701329857953224
-0.89796835
-0.89796835
-0.89796835
-0.8799122112996556
-0.6164062588137778
0.04730440419213294
0.9723536606043159
1.6919869851354725
1.6094249714420346
0.8935419021854
0.10601975575461398
-0.4322556519497328
-0.669337249236354
-0.70919597
-0.70919597
-0.70919597
-0.70919597
-0.7276177972346697
-0.7642575169248593
-0.7552623705483558
-0.658452993043197
-0.2915909319848917
0.7306953554594344
1.5793335681295537
2.082924627069975
1.720683077000394
0.9315522739626676
0.1427640444413315
-0.4376145894765591
-0.666884982521607
-0.7369855450961393
-0.7721201
-0.7721201
-0.7721201
-0.7721201
-0.7721201
-0.7816268206671658
-0.709287512610099
-0.23374806768181344
0.6474433028889113
1.637884539385865
1.8176380192180128
1.3012391287889842
0.4703029922303424
-0.22945957707257406
-0.568265019769572
-0.7199345481765177
-0.7654572030379168
-0.7721201
-0.7954563158905599
-0.828646092609424
-0.83504422
-0.83504422
-0.83504422
-0.7259191089625555
-0.3820011925133995
0.33075783927312774
1.0121912075048534
1.0763273076869264
0.5337797757313849
-0.056277205597302205
-0.41014055166861607
-0.5761381720674017
-0.6428176197661101
-0.64627184
-0.64627184
-0.6481872534924206
-0.679782852599042
-0.70919597
-0.7001322486608731
-0.6392176506764511
-0.2509955141604908
0.4420114997036957
1.150954592172748
1.2877248672573887
0.7454520979544677
0.22506231862907486
-0.24061597417253672
-0.3990359505192361
-0.4810614523768309
-0.5140382072256816
-0.52042359
-0.52042359
-0.54442157908618
-0.5694326276914535
-0.5436159447272602
-0.31276501428240516
0.2650807143119519
1.2322176180363635
1.5923767124081756
1.244311475295508
0.4736439124245716
0.016236690384455243
-0.34177469540200295
-0.3853928102002755
-0.45749947
-0.45749947
-0.48105301997679384
-0.5137556801285085
-0.5558154583883093
-0.58334772
-0.42236468768821983
0.13595002655450056
0.9568372505900986
1.560988907377244
1.4190012822147324
0.8613957804191695
0.1124794140976465
-0.32214985655527983
-0.48034413003622145
-0.5746043307050103
-0.58334772
-0.5920158222657065
-0.6220542596671514
-0.64627184
-0.64627184
-0.5621000634463263
-0.14405812027721115
0.5349982548373354
1.0882375104507847
0.9918271315569686
0.42783499298404537
-0.1275833979698141
-0.3996214881964411
-0.5298735133817649
-0.5700859395236976
-0.58334772
-0.58334772
-0.6063641575825341
-0.6361296134377904
-0.6235190325199674
-0.44905964886294397
0.05416431852975767
0.8391960452408647
1.4281852106636372
1.3406949636475
0.7520823014819074
0.1264441507145847
-0.20309250991573358
-0.3541319313502883
-0.39457534
-0.39457534
-0.39457534
-0.4352518851364018
-0.45749947
-0.45749947
-0.26874990860321024
0.3295571094563677
1.205949801213034
1.909945446189305
1.8428448115643303
1.143730108782769
0.3441059673166701
-0.06531377161117496
-0.31222649412844294
-0.436507484627515
-0.46217451675671656
-0.4918823334632786
-0.52042359
-0.5571965528238156
-0.58334772
-0.5018327010772318
-0.06229692858698549
0.7587619908704757
1.6240832346197194
1.7837496337573824
1.236221207707486
0.4899713853219222
-0.123654441612342
-0.42658934778278307
-0.5582215765426419
-0.58334772
-0.6235040907478303
-0.64627184
-0.6820896696390936
-0.70919597
-0.6669800758100393
-0.3535937873320485
0.4482925193361691
1.3973566011564722
1.740931165025078
1.3771638122116217
0.6948317943297248
0.026395227324952697
-0.3932773950882227
-0.5128727975000954
-0.5698958001660095
-0.58334772
-0.58334772
-0.58334772
-0.6045454369276485
-0.5965294493773369
-0.40604301135856524
0.21506215351289654
1.2592554184267193
1.8317458738674381
1.749513037116086
1.1515349519386562
0.46731563352023686
-0.1615394946509231
-0.46214623892303014
-0.57617604013518
-0.58334772
-0.58334772
-0.6245322489766544
-0.64627184
-0.6801518481056621
-0.5475506141721513
0.08020379931634503
1.0028482422139466
1.768216812605775
2.003601916769246
1.5352793074601223
0.7318116227289454
0.025796266536672108
-0.37892612629581834
-0.526166951766187
-0.6044238646142787
-0.651805155412471
-0.6713486799260462
-0.7410021724444035
-0.8139082649436225
-0.83504422
-0.7446454201464165
-0.24388034298356748
0.7859303258677908
1.622823459801461
1.7268160523840512
1.0807853867042445
0.31305369637306457
-0.28474260950175945
-0.5934911655273357
-0.6980096544386019
-0.7505328557011582
-0.7694828824010731
-0.7817637147217944
-0.8247279938638347
-0.83504422
-0.83504422
-0.6833751020655269
-0.13785943304995335
0.7106586781684879
1.615564347517047
1.6716128444313643
1.1149620211721223
0.31853012610218995
-0.21277202325603606
-0.5185326424615765
-0.6280848825936893
-0.64627184
-0.64627184
-0.6907375853854034
-0.7069777320623716
-0.70919597
-0.70919597
-0.492007627323905
0.3572822197512939
1.2901143376341233
2.003535749204457
1.7819884914411186
0.962650470451209
0.28174597345090513
-0.2771792517876105
-0.48453096007457974
-0.5741688669783297
-0.5921690236335747
-0.6398679344458397
-0.6568713850405238
-0.6989367459000478
-0.70919597
-0.6914490587336943
-0.4493474214905862
0.20151268092237828
1.3507753598259429
2.1383822183602716
2.0655503841824894
1.3540224599301363
0.48864812183090434
-0.12866663629403235
-0.4341745374651404
-0.5699493793043179
-0.58334772
-0.6147758861788685
-0.6435852539117619
-0.6906324152966832
-0.7052510919156432
-0.70919597
-0.70919597
-0.49977995758877003
0.23815954617191626
1.4686710774435272
2.2434063727993845
2.233029917837845
1.5570643214748103
0.5364358880376233
-0.04469599825990139
-0.5631920869465126
-0.6635844131399686
-0.7058398013676481
-0.7698202293572071
-0.7721201
-0.8287137769334149
-0.83504422
-0.83504422
-0.83504422
-0.83504422
-0.6037575440795933
0.10305689540673713
1.1808240972342319
1.7652935957879945
1.8169583410111418
1.0972915363848297
0.1887415195758425
-0.3249666211972315
-0.5281291840739075
-0.6515969759639901
-0.6951551205752974
-0.7561474098491967
-0.7771811032933791
-0.8323609798163135
-0.83504422
-0.83504422
-0.83504422
-0.7545698280096531
-0.38256149076695106
0.44046013039767384
1.1723829154994718
1.3964748954000925
0.9259454344663822
0.16464083585754496
-0.18139384889663468
-0.46558982668309246
-0.5082745306237064
-0.517761044549192
-0.5484949488960504
-0.5763125026096816
-0.5880847497981349
-0.618098003687661
-0.64627184
-0.64627184
-0.28567207343050777
0.6541261131522652
1.4873342375075618
1.7448449
1.1548217385793755
0.5795676275258899
-0.0969899637032035
-0.3731759800593517
-0.45487874221613545
-0.49543966940756934
-0.5149831861564274
-0.52042359
-0.5823293898509849
-0.5865286282154347
-0.6433104629062687
-0.6089338995199449
-0.17836201416849876
0.6847219507374533
1.7016259637313156
1.9642393703175829
1.4156636895001409
0.5632405667784386
-0.038319177359433576
-0.39432191410125444
-0.52042359
-0.5213759320571204
-0.5814024525555159
-0.58334772
-0.6229351831984602
-0.6456479188795654
-0.64627184
-0.630586199955322
-0.4474283741920854
0.4046000016253731
1.383259099943643
1.90350891999155
1.5596055796414072
0.6586317980717348
-0.03343862543835274
-0.39816791952737046
-0.5162301811042889
-0.5790964180129957
-0.64627184
-0.6472317739995719
-0.709023780394979
-0.70919597
-0.70919597
-0.7089336806425321
-0.5499624084031476
0.09548811525998649
0.9613010329007179
1.48496329319749
1.2207715784210835
0.4364510086637019
-0.0030899661641923815
-0.3840498469081639
-0.46738665778943556
-0.5209126146033275
-0.5292663056032247
-0.58334772
-0.58334772
-0.6262207078892905
-0.6462095341688546
-0.635497521541615
-0.3110141219136602
0.2866918329984132
1.2135718601889531
1.7158091241849016
1.316984576932836
0.41848123446571345
-0.14347807232243487
-0.3505143847738793
-0.46187063169897324
-0.5092954500793727
-0.52042359
-0.5243685578768853
-0.58334772
-0.5886964022459448
-0.64627184
-0.6098930918457955
-0.29710255295215166
0.48298243955230696
1.4112994812407047
1.8986744083392837
1.3215230656245862
0.5984129226226941
-0.11255025195429791
-0.36681257501802994
-0.5023229497798607
-0.518223152502243
-0.5258658483074633
-0.58334772
-0.586349444190062
-0.6241952903563436
-0.64627184
-0.6388784993318403
-0.4462266263024698
0.26383032934119943
1.1863884840589602
1.731390805890083
1.4463974893028222
0.4340099191573187
-0.15730411056525379
-0.41216440138691124
-0.5467234906407582
-0.585153560748376
-0.6045334699437084
-0.64627184
-0.6485357809684842
-0.6688474802565384
-0.70919597
-0.6972084369335917
-0.5186974903158392
0.05087717859585568
0.8349287426856304
1.2488109682194701
0.9902920452910742
0.31918822177112144
-0.1997286611092161
-0.4785902003427156
-0.6047271952792179
-0.651728209585302
-0.6773820922691578
-0.70919597
-0.70919597
-0.70919597
-0.7068634793455252
-0.6476788103721853
-0.4060449915244259
0.19852557887318206
0.7941185247966078
1.0197201591796017
0.6958561861246892
0.14795636580127924
-0.2496306332571321
-0.41737444001573665
-0.5108550539410993
-0.52042359
-0.52042359
-0.52042359
-0.52042359
-0.5174466000726575
-0.45604164080000836
-0.18906197723864282
0.4656458454951182
1.4928420227771255
1.6957554233758025
1.2152674233203606
0.4702484656535939
-0.05355434979195983
-0.30745953218462396
-0.4170030113973593
-0.45749947
-0.45994919986199734
-0.4804478139815786
-0.52042359
-0.52042359
-0.46425967010906527
-0.23070753970082628
0.5742038644751017
1.3148289006493
1.5761164976666688
0.9892593216678748
0.34585793978908325
-0.16893403773498641
-0.41318912742525704
-0.4834265463468745
-0.52042359
-0.52042359
-0.5350240231484956
-0.5739414657285693
-0.5796736658677865
-0.5057777440467408
-0.15632073862446855
0.5966431087228253
1.3840008386523073
1.6145727978572497
1.046262854629446
0.369913780805861
-0.11037993140775684
-0.3932981282496383
-0.49499304544411105
-0.5283676369164038
-0.5686657078747487
-0.58334772
-0.58334772
-0.58334772
-0.5771032548855497
-0.4603748164471553
0.023013788852233902
0.778502194742549
1.4764012006506733
1.5171569776153004
0.8721765108786312
0.18914250650266234
-0.28312658175114586
-0.4328856804641767
-0.49959852610581235
-0.52042359
-0.52042359
-0.52042359
-0.5708646271240903
-0.58334772
-0.5748421210838506
-0.4361016317358499
0.03635402645429159
0.945055462390047
1.5611681437637177
1.5333911246560818
0.9389333311986598
0.1861477054415094
-0.23234691470516314
-0.4286879448258263
-0.5035880909066198
-0.52042359
-0.5239567808853485
-0.5751989325303146
-0.597697806647531
-0.64627184
-0.64627184
-0.5592801805258422
-0.006243802898520997
0.563791730123805
1.2521916608624215
1.3086534327187103
0.6897887378669938
-0.009590997197213548
-0.29142281007150556
-0.46984050165210856
-0.5024823730756186
-0.52042359
-0.52042359
-0.5412527386390983
-0.58334772
-0.58334772
-0.58334772
-0.45564181924008
-0.06384131691799727
0.6441712558804484
1.1907200367098545
0.9726935211969745
0.49659614429963084
0.0057691993039196005
-0.34138181102903836
-0.443687736402235
-0.45749947
-0.45749947
-0.45749947
-0.4885927913074218
-0.5106968353728893
-0.5148680084159887
-0.46400060302665996
0.07806037215333822
0.7345695970600463
1.4323808865862526
1.5740934491347909
0.9167795794157304
0.28838757924555336
-0.33160789583443673
-0.44004266667261854
-0.4989263384536499
-0.52042359
-0.52042359
-0.52042359
-0.52042359
-0.52042359
-0.42660481223095886
0.13520311119297238
0.7254638611156551
1.4980990978231767
1.5132044531536253
0.8269630089216122
0.17739377308406015
-0.2945498713837438
-0.46453142037607914
-0.5407970879266807
-0.58334772
-0.58334772
-0.58334772
-0.5984888505231563
-0.6303936377403402
-0.588164268471899
-0.34755770617747855
0.419587965229572
1.1011199071723483
1.3325440372759159
0.942497425126406
0.15787200226273668
-0.26131675193682635
-0.49038424527308333
-0.5686006946994867
-0.58334772
-0.58334772
-0.58334772
-0.58334772
-0.58334772
-0.58334772
-0.4436027052114611
0.1388392917941786
0.7615380100824946
1.2700626864183988
0.9663345679641064
0.36835553827927636
-0.19762239759382266
-0.42033056840863137
-0.4978447763682635
-0.52042359
-0.52042359
-0.52042359
-0.52042359
-0.52042359
-0.52042359
-0.3837224409788648
0.16248767397905975
0.9248561568829062
1.5266876744025546
1.4661763281385498
0.8300282908841825
0.062222497282107214
-0.3418789050320454
-0.48806448640398503
-0.52042359
-0.5243676421885228
-0.5493440572286195
-0.58334772
-0.58334772
-0.58334772
-0.4839964452638257
-0.10246362163241057
0.5681558817647029
1.541068322255184
1.7459588165562494
1.2194642436342509
0.2732569231564911
-0.16166709803882615
-0.4457162101151505
-0.6184300333596653
-0.64627184
-0.64627184
-0.64627184
-0.64627184
-0.677175549813019
-0.694895388018304
-0.5791450439650445
-0.16014452072216612
0.6626473659510522
1.2982013846911549
1.3846039679916737
0.8249784194170839
0.15489897518898788
-0.34518988428088127
-0.5308708972752496
-0.58334772
-0.58334772
-0.58334772
-0.6115686700695062
-0.64627184
-0.64627184
-0.6135728506549986
-0.343499893117789
0.2538209580823859
0.9871310814452894
1.4302243
1.144883799108381
0.42669773382470666
-0.15208710764401992
-0.4549123149483024
-0.5150903805845216
-0.52042359
-0.52042359
-0.5353166875541647
-0.5680863543418339
-0.58334772
-0.58334772
-0.5447041251662839
-0.2592037296216648
0.46786748094358976
1.2585043813468755
1.6287045908296456
1.2320668197704792
0.5421969497707484
-0.04777268439034993
-0.34195214156575915
-0.4892352324240647
-0.52042359
-0.52042359
-0.52042359
-0.5291093317395342
-0.5649451589554005
-0.58334772
-0.5229595903219035
-0.1729740084567012
0.5007399325805704
1.2057000810323906
1.3175789425451925
0.8374921304338558
0.17708053423556203
-0.24743179062515847
-0.4617952902045773
-0.5241953955110007
-0.5642975590050614
-0.58334772
-0.58334772
-0.58334772
-0.58334772
-0.58334772
-0.06798015267901569
0.4473086547241271
0.8632757303523174
1.2792428059805077
1.6952098816086527
1.0348706024564316
-0.21146645165517736
-0.5680518640269852
-0.8006375619465225
-0.8340022991792907
-0.8096529878754939
-0.772353125684163
-0.7721201
-0.798339171304595
-0.83504422
-0.83504422
-0.4571401305458564
0.6254804067063507
2.8814462986328633
3.1745990886893107
2.668199447522862
1.5819145182645502
0.209038864888407
-0.3785584840697278
-0.6739432698765765
-0.7546046287832128
-0.7721201
-0.8139671405927205
-0.876379057837219
-0.9381710578435806
-0.9547301694525478
-0.7082196160740415
0.3258702597240699
1.9616848654790404
3.32484670331478
3.3993187224277293
2.1400660914224163
0.602285099703284
-0.37021658808404134
-0.7841178381918092
-0.9752736987093917
-1.027381526142638
-1.069575755515346
-1.1398845506288298
-1.2016780644489433
-1.2520047717430356
-1.1916616307118102
-0.5529902037789713
0.8292426114357541
2.1055640518338827
2.735895701655439
1.9719417750723554
0.6069134390691767
-0.27309718250841963
-0.6968336264875231
-0.9011290135444354
-0.9595047970100546
-0.96089247
-0.9752648594272617
-1.0113939750636844
-1.0746118657245247
-1.0725371640858181
-0.7545186787224452
0.15982476382645083
1.9890534262869715
2.618514502919455
2.1520070540905243
1.0372630766872628
0.054375749742668344
-0.4732796040775987
-0.7111064860180107
-0.7954972757835802
-0.8294251695741575
-0.83504422
-0.8849931693598662
-0.9239153801106286
-0.9541636690204846
-0.4897777159153883
0.8060613096673959
2.4577832533337163
3.605204665732448
3.286801012911723
1.9354521892297472
0.595868593550444
-0.38854427300345906
-0.7636228672602562
-0.8815631354475957
-0.9469464526632803
-1.0097657285784114
-1.0705951337128221
-1.1242000862564392
-1.065794542610051
-0.3985292205851908
1.0141308814618895
2.9187357106112546
3.7481591133443684
3.3500952686239036
2.0822616902195064
0.4576825021181934
-0.36070282255893615
-0.8489216383169164
-1.0058211181444365
-1.072059043684966
-1.1621172429395912
-1.2952303316590887
-1.3616725219124906
-1.396181405051453
-1.095768160568122
0.08153362878816373
1.840383180662595
3.3576135821044595
3.6845399803243497
2.7257989487959966
1.1162269678923031
-0.18510441369867858
-0.9190088759681097
-1.1385137682052795
-1.2021999735735085
-1.2447740323120648
-1.3004515348280794
-1.3601118534173127
-1.4377170453205104
-1.5195438192767907
-1.4620113229721523
-0.6879788639772793
0.8179858205330716
2.6315543491495816
3.3619103186433423
2.5192696142877726
1.1629815896169275
-0.16175011507889603
-0.745493175821941
-0.9421873279713417
-1.0161547299391576
-1.0238166
-1.0238166
-1.0796253037070604
-1.1696793613130982
-1.2080469704323011
-1.1184320377527917
-0.09119647819282473
1.5466329969224561
3.577386962888074
4.093414895926912
1.9401811641136417
1.073208402531023
0.2686159566664402
-0.16764046572934274
-0.42947259734577314
-0.5117548292350729
-0.52042359
-0.5644177535245638
-0.6287333324838211
-0.6861845934304585
-0.750209442243665
-0.7267625190932335
-0.24892742428477138
0.6926388819071843
1.763892363256437
2.059260998825256
1.7506554473815406
1.0727655723331948
0.2391367296006809
-0.16610572651853028
-0.49964472789704645
-0.5413131373124733
-0.618218179390304
-0.7291772977857961
-0.828529131798631
-0.8893868610270461
-0.96089247
-0.96089247
-0.7164920050576651
-0.09980618200735403
0.8308464958212393
1.822419523655813
1.619669896793891
0.9065522121240004
0.2923196998068178
-0.25243381301119666
-0.508217248929077
-0.6415868458785455
-0.647915783603885
-0.6965289279218839
-0.708847487789254
-0.7537410056864123
-0.7713082230345583
-0.772092387303617
-0.7400732231241203
-0.29461811371125535
0.6807556122403807
1.478349587781521
1.945704207102202
1.5232359877924087
0.667510816861462
0.1255159234482408
-0.3672729576588281
-0.5052428516151037
-0.5822422231689565
-0.58334772
-0.6203625325755939
-0.666871661029803
-0.7028355961483961
-0.7248768595498145
-0.761308390364907
-0.5253893660787611
-0.021525320135200365
1.1718386127087448
1.7260679029260513
1.9421726476240735
1.5051227724019536
0.7631087450254882
0.21286567384536415
-0.29213379466216627
-0.4752125044348523
-0.5177988804529685
-0.552340539483737
-0.601940904073485
-0.7186591383759083
-0.7978564071201091
-0.8344264636529365
-0.811082818647351
-0.4736932328624969
0.2990113190273454
1.2794444649088488
1.8552659029025422
1.559990063842875
0.8596806673027049
0.19711409022605975
-0.33686107819810035
-0.5867011706902037
-0.64627184
-0.647350559064845
-0.6706942133449413
-0.7312553857844474
-0.7881125290754034
-0.8301310900854573
-0.8782971738811964
-0.7503919056922116
-0.20528624032171994
0.6162267889652732
1.3988405961113688
1.4607807858341544
0.8890022551859628
0.19376810230387856
-0.3252847199933387
-0.5450961338133146
-0.5821022222399806
-0.58334772
-0.58334772
-0.5840813373737648
-0.6301358951487104
-0.6456984261183423
-0.64627184
-0.5075022096048648
0.13030782633814603
0.9698858728307523
1.7421188859883308
1.7886726692470851
1.21538676928374
0.5112919541454651
-0.09409250478079795
-0.3934648738475429
-0.5084599251771789
-0.5250921129584327
-0.5737261004739459
-0.5971411179184974
-0.6474313261656357
-0.661500343189218
-0.6965158153348567
-0.32314645859327973
0.3491505259145048
1.4185904880439066
1.8481135190483626
1.7576527784542322
1.1514401903526463
0.3163879076387555
-0.1775292788388314
-0.4543673353355953
-0.5721664151215773
-0.5889062466798278
-0.6474640576572757
-0.7215301192468732
-0.8253274899757875
-0.8967968094168971
-0.8132568826335556
-0.24143705990635436
0.6242852435070156
1.6172040840523736
1.8973278241193385
1.5835951695760448
1.0106147694016105
0.16274411241889142
-0.22492713598912917
-0.562259138940223
-0.6372922776388414
-0.70919597
-0.7149517347018373
-0.7712555023502444
-0.8496145753683259
-0.89796835
-0.8638540423519374
-0.6360665218229347
0.16818327581429887
1.115635918706716
1.7831858234031241
1.641384778483731
1.0861328373606187
0.1623188426435528
-0.2954671794410117
-0.6203884219335492
-0.7245844469311443
-0.7791304998650733
-0.8242725979455745
-0.8512701231894995
-0.89796835
-0.89796835
-0.89796835
-0.8855892298990293
-0.6782845553663431
-0.07282510846321458
0.9011748923991114
1.6307556348231302
1.7088648312762187
1.1279104988588144
0.25732916930801947
-0.1928697026315403
-0.45684201034492344
-0.5606558939320556
-0.58334772
-0.5871363188295952
-0.6037936740625652
-0.6366491103625963
-0.6926168106276233
-0.7660801319008314
-0.6721532681717154
0.04671985619075256
1.1417633739576043
1.8272476111921137
2.123663448893009
1.833274211930442
1.076489136701502
0.41982954543804135
-0.08982385079093344
-0.3310068094909786
-0.39457534
-0.41920340931228406
-0.5196158843767285
-0.6509238899028482
-0.7689033514052819
-0.8402076104714266
-0.7226031357405512
-0.08446346040074298
0.8477792128009063
1.7870192064685138
2.123274384302551
1.8924378255591703
1.3426365335729693
0.6474844192575328
0.1226497633802821
-0.11649733822431635
-0.26283296131419775
-0.3274674948388802
-0.4823769167253904
-0.7124844814389707
-0.8889705998258771
-1.0830883358612546
-1.0347638127694627
-0.5002793270757315
0.540415043603698
1.3983035278706861
1.8175624409095503
1.6614276244812456
0.9935411165598129
0.35929713131945207
-0.16364041904900672
-0.4498313964602505
-0.5776237753523346
-0.6849960864386546
-0.8262109040755906
-0.9672152822950174
-1.091377997499274
-1.193019920168537
-1.195869565236285
-1.116180133500397
-0.34035043306458523
0.5049108137750409
1.4251172764067115
1.8092504884035687
1.4482104180779345
0.6029490314596099
-0.03798094350696769
-0.5022045999168142
-0.701832502919101
-0.7542521595404093
-0.7721201
-0.7821312986994897
-0.8177278112958064
-0.8530166017322734
-0.89796835
-0.8356750958519414
-0.5124952041012194
0.3259814681834627
1.190401193115656
1.7791217184983066
1.626518928249261
1.0087516171183437
0.3429727518101334
-0.28409095559170155
-0.5629319002484501
-0.6188379705490541
-0.58334772
-0.5903700540984274
-0.6586758379332533
-0.7419542547464146
-0.8273749124353194
-0.883992037194992
-0.8057455125054309
-0.20313188465614063
0.8293080555192603
1.6662460244499595
2.11637602576245
1.9040097428651865
1.2084387285351716
0.5283679596545523
0.0444631259290373
-0.21435342569665192
-0.35157163217368814
-0.48088194605723733
-0.660232647931855
-0.8422159991716739
-1.0084264518424118
-1.128089449018822
-1.1443205912554975
-0.9362712746679298
-0.2406239220168659
0.6689275516979042
1.5826812180823446
1.8120143402846693
1.4279192582785627
0.5905716580573932
-0.0455011521933697
-0.4161572196750908
-0.6120731005143595
-0.64627184
-0.6678695095286679
-0.7380533414076502
-0.838340841387331
-0.9114027152501174
-0.9540307684089594
-0.8904989656879042
-0.5074247277712755
0.2786297460176409
1.3592845377050442
1.8407672233682177
1.6529728337900782
1.0245253834138384
0.39206164572293756
-0.11640913580255802
-0.41702204881069244
-0.5131068474446863
-0.5507686429274112
-0.6484809572269074
-0.7716240335117891
-0.892224859486655
-0.9878531573204236
-1.0212178945531938
-0.8165926266590301
-0.2719477111546269
0.8854818873640264
1.6058575127130652
1.87251407321557
1.3836656915010577
0.7624932718487339
0.14254128672855743
-0.29052282836357113
-0.5080511318211272
-0.5769257193255681
-0.6181609638107113
-0.7079876011172148
-0.8248719539449149
-0.9226364235941683
-0.9927158770385425
-0.974735204132781
-0.549623532628307
0.2494429888342492
1.1940260599889025
1.7284270444358534
1.57770229518729
0.9246152633304696
0.24111326347274487
-0.27240664870863984
-0.6100443577568301
-0.6869075811525658
-0.7059335662368538
-0.7504548187618283
-0.8363517947716296
-0.8780202041870493
-0.9337122404987552
-0.9469167404839486
-0.8182556038530834
-0.2962854385911693
0.5824110954610203
1.381365508332245
1.745303497595412
1.3976328587977311
0.6810209284179233
-0.16187464350167596
-0.37846490645395525
-0.5618959369831429
-0.58334772
-0.5952611310817354
-0.6502599732247102
-0.7632533351724216
-0.8440883765261159
-0.8941104769414596
-0.7178819966067096
-0.2155455362824475
0.7167867135693705
1.4738345709664358
1.7968112620723347
1.4174318875585485
0.7064321759985691
0.10046147781770648
-0.32459868351099347
-0.5072942693679847
-0.52042359
-0.5263318720170073
-0.5850370531004287
-0.6597513623903928
-0.7579195292825487
-0.774170019658225
-0.39733138180262206
0.3781569291432428
1.3439326628382737
1.9424692951369644
1.9087700365226572
1.4017178971268438
0.7920757695912228
0.2476614212521098
-0.07559110211272063
-0.25758694053627695
-0.3662425204325276
-0.4683485662691849
-0.6474644297598816
-0.8568470282936783
-0.969334218534874
-0.7649279542182669
-0.03771031605550823
0.8614087267223383
1.5679523742254686
1.767505227620637
1.439977046736041
0.8713247808061915
0.3087020011077846
-0.07494193873207812
-0.2650808877172211
-0.3490068473248787
-0.4466040414807969
-0.6017603175665436
-0.8056321517438648
-1.0083550517215163
-1.0249971908577247
-0.7105146695546205
0.1674652403704992
1.1342612952049824
1.7398019156844242
1.7009799827774181
1.2413913452262444
0.7026659411745713
0.17122391851184338
-0.07239600321285462
-0.15745767940466757
-0.2195489020899863
-0.3094820858029377
-0.454472830255833
-0.6479017207783049
-0.807466263487639
-0.7122060384350073
-0.08671532598425657
0.7660509415448447
1.5741398372936153
1.8097204018705384
1.5770484414313701
1.173562635663688
0.7532908033703446
0.40254662131915475
0.1742124571350464
0.03989695100400181
-0.07486593785649928
-0.245858957771689
-0.558466837949444
-0.8379992311530062
-1.0385137088776561
-0.7532469116166375
0.010304564686982265
1.022751084199121
1.604802727400323
1.6070490963866662
1.3563701598261424
0.9894198876845917
0.6516950872999678
0.4366287990162665
0.3412568894817078
0.2819754306969363
0.15233369048808687
-0.03802028542661996
-0.2567978491027907
-0.5400125266159046
-0.6843384162772308
-0.3787964803245254
0.30679241753777486
1.0404330998762938
1.412090822380245
1.4028887674283106
1.124090246764117
0.7922444801700028
0.4777036789712008
0.2751698259134894
0.19464345600809174
0.1073277548451443
0.008895862459172628
-0.12877222057084337
-0.3813742360956701
-0.6288497612782726
-0.6928130972391819
-0.32457545135365007
0.36085347354350195
0.9696225372304352
1.2627945650291559
1.1661137020500087
0.8604417993557208
0.5323335978100386
0.25826851381135796
0.13390987146514416
0.06400097997597262
0.020909510902592444
-0.06782107106892074
-0.2240975124579057
-0.4903152178626944
-0.7742298033662174
-0.8643628760678524
-0.5832491888162712
0.030335570215221763
0.7887149740213976
1.259825673191442
1.2612166751128209
1.0330542526878828
0.7354854623884882
0.48450118780247686
0.30012290611162784
0.19037771221957867
0.12271844936882204
0.031130405439511247
-0.1283746559340733
-0.33456555373981656
-0.5255362867477091
-0.7497811257354804
-0.8255515369445823
-0.4234893371651056
0.3434754619055356
1.029727447378492
1.3289637456226104
1.265481741187312
1.0666123703162544
0.7653427027194755
0.5084137320571946
0.35539278722628054
0.2768896879129035
0.19103622714427712
0.09407650432174776
-0.0284988986632091
-0.23426528793331924
-0.37492793403135216
-0.5690302347779765
-0.7463957957804537
-0.8935892790791875
-1.0387894706645913
-1.039814176195102
-0.7418285589919611
0.01685658259050704
0.7767437161023043
1.177786044722115
1.188049174065487
0.9574595364522895
0.6532779939334303
0.397287799288384
0.2419269532717112
0.15584749754395266
0.07298312536926899
-0.035910332914732404
-0.14908964103097344
-0.39614175456620393
-0.60879039387122
-0.8958756102427221
-1.0924898622357526
-1.2108093786337348
-1.3336332639016795
-1.2899833861077616
-0.7494467464480732
0.0956045798327031
0.9849626962855016
1.3707283912611303
1.2919207665002836
1.0030369283754528
0.7080350004575074
0.44031483122186077
0.2321058044628638
0.12208250847132968
0.03343843813422988
-0.03878137840209395
-0.19667214003022104
-0.38528657080524475
-0.5506445495331029
-0.7403155791086039
-0.9938140027679657
-1.1351552569482977
-0.9895544729734688
-0.42708477496282726
0.55394575862174
1.047174945993417
1.257125540387175
1.141018129001952
0.8084144002477829
0.5754618642469465
0.31502668766513364
0.1952855994849696
0.13820303819823848
0.05604337717646196
-0.023754125431468542
-0.17006070349951374
-0.37124680279140043
-0.5813396078415868
-0.802293521256511
-0.9733616368659427
-1.0769710765037257
-0.9117045434731815
-0.34039464021812815
0.479479729097249
1.026267995759055
1.1571452007348169
0.9668165650151548
0.7833855344859673
0.504628969148443
0.23586353145222455
0.14067003166486447
0.05373522175526835
0.00782343654075094
-0.12984437931648912
-0.3286260540194632
-0.6612489298625162
-0.9237374063436471
-1.2060028047806055
-1.3663612997355787
-1.4988508338304585
-1.4234217904961237
-0.9578515258934288
0.007243109799295766
0.8884330643405856
1.2682243708921082
1.1065593459393352
0.7899249322912971
0.3583173580631383
0.13547573534716129
-0.057199982245900866
-0.12565608654441143
-0.1531556411234606
-0.2777855541697496
-0.5302770915769445
-0.7584101748939138
-1.0834459355310422
-1.352579648324614
-1.5431918478182838
-1.6518405711618829
-1.5146732383658335
-0.7149807507996747
0.345738413633616
1.4149344747598838
1.5406750692513997
1.2486039276704635
0.8447009486000588
0.4799564965473335
0.1491808702146924
0.007250369299847247
-0.01275846959435157
-0.03768503395371881
-0.21461861415283362
-0.3932475281934831
-0.7340451387957218
-0.9323805515361381
-1.1818531419001854
-1.3529829674915437
-1.0423021887226094
-0.2919707540388886
0.879673733862989
1.3773766735059332
1.4038991500934477
1.1447507430697244
0.7876567491643969
0.44724803763952614
0.17464513091812456
0.043634547181778754
-0.007607601205794713
-0.0651566935157509
-0.19978631144756565
-0.44231540110311063
-0.7055141446841592
-0.9957878827037393
-1.2338293318393467
-1.2769270780489899
-0.7516950276628805
0.18278602831407076
0.9626571563072299
1.35051279762387
1.2680224128250044
0.9845471735156553
0.5317413230403186
0.1351887262038882
0.004263387026939985
-0.10683732180076515
-0.23781242561121246
-0.44048332447648797
-0.7902540293846261
-1.020843724002197
-1.380101568865881
-1.6147515197292297
-1.7578010499477756
-1.6860298465610302
-1.0484724841502722
-0.08804820148854198
1.1402118915093775
1.5406571791912784
1.4110577269593503
0.978866794634067
0.36079420404287577
-0.02008868121015872
-0.27015448710157897
-0.37403967290925394
-0.4208395867647669
-0.5009022512293214
-0.6443156046059895
-0.9429318122050101
-1.2016282496506212
-1.3674162621654176
-1.5128717786000945
-1.1029345980143814
-0.04309096014700678
0.9347629359868201
1.709637701259705
1.6302018246421726
1.30827753156296
0.733822865405035
0.2743166373907821
0.0034153599419267967
-0.08458883078543233
-0.12505941021068193
-0.18034698609385175
-0.39596071434793745
-0.6690923584308163
-0.9262206208935433
-1.1855776064745724
-1.3722676448956226
-1.3028664935648906
-0.5097944743636853
0.5665779481952089
1.4860325057082147
1.7456764337681474
1.550596346990003
1.2471256998754177
0.7820586130830552
0.4389179428700608
0.22010284411079623
0.11416816217679553
-0.00935120383739094
-0.1124742962721394
-0.35047087409112515
-0.5998664092819805
-0.8937102206646009
-1.240743134935467
-1.4158204426663668
-1.1330871981032316
-0.49280433981565785
0.775871594469614
1.4192355892039406
1.4208349242575462
1.1016815891727278
0.7130862906153836
0.22079803886602795
-0.02333152440609253
-0.16646509050854785
-0.26908090285339475
-0.4044639385661855
-0.6249540876724377
-0.8796120483882511
-1.1322732125473676
-1.3646130298393375
-1.5145863617055884
-1.5911736239229723
-1.3264913857843474
-0.3121403284582932
0.7054149042436186
1.4604252276433365
1.5764541042652298
1.1780870900630633
0.7108850701900827
0.15629655623250585
-0.060703604691375375
-0.13323388843541145
-0.15636117689715978
-0.27721286061308126
-0.44372473579711735
-0.6936395599550351
-0.9127604666138099
-1.1185857029685682
-1.2620434584332136
-1.1436411592389515
-0.29692636240117554
0.6524216738712401
1.3823207336263192
1.6878409861203592
1.5356847302295311
1.048269438818891
0.5929417092047338
0.23008557160801144
-0.0027164103777654394
-0.10631165514678896
-0.2636915949985818
-0.4384359038961135
-0.7769759790469946
-1.0423785059498283
-1.361943244873162
-1.453633810351004
-1.491898151550559
-0.9827973789165303
-0.18854408135187217
1.1312324910430993
1.6154708008792786
1.5556407882094705
1.2322761254847494
0.7350769783389596
0.22659252485658182
-0.0952325132488235
-0.2869672143706824
-0.42333835726121544
-0.6042780944240589
-0.8513278746838369
-1.1507227122278596
-1.4308536343094032
-1.6572463155124948
-1.6879915429803218
-1.5283857948199444
-0.6099772832249101
0.3693224254366576
1.5886467949375669
1.7059446218411878
1.3566073093242512
0.7671441768051128
0.12671125201173644
-0.3788032581662625
-0.6268267589001
-0.7003229396723499
-0.7225847329491576
-0.7940039113785735
-0.9066293636283459
-1.0682930953973362
-1.1844590509695658
-1.2593409235970954
-1.1512228557213147
-0.39974353369275817
0.4871522245470764
1.520908903571599
1.9310777469347857
1.6774854305405291
1.0355518399899806
0.3112101911692853
-0.0011425299269063032
-0.1906547718177268
-0.21965960816203192
-0.29718872708034466
-0.451118777717907
-0.6694683807419315
-0.8604946430787012
-1.0521318815159173
-1.1393756400829838
-0.8263507539073155
0.018099454053571495
1.0599090399126991
1.824703435777052
1.8762350901990557
1.4995475805863392
0.9891384159946877
0.4832873932974332
0.12371419941506805
-0.008758017050202647
-0.02044439206464301
-0.08002398989034043
-0.2573109162751996
-0.4824646151908958
-0.7701133833856807
-1.0007228534462265
-0.8530219559230732
-0.017351317595376947
1.0105874992285386
1.6071461076155862
1.683791193932125
1.3836585755409354
1.00550497505849
0.6136899841494388
0.1156587775439448
-0.028592843467024138
-0.12713395174995562
-0.25821994745621535
-0.4131090735854558
-0.6541893610587577
-0.9701320418436598
-1.1536931675769524
-0.9749013343209973
-0.29757308170719515
0.6414030541051072
1.4182275194162721
1.5331022036995603
1.2085629094727084
0.7394943692276024
0.2772855520128443
-0.055146567677432735
-0.22287394435461427
-0.30261567302885534
-0.40304775133121185
-0.5735913311563534
-0.7813204301025709
-1.0169923059640429
-1.2319695391965004
-1.1911021872334102
-0.58628752097836
0.36030544537582065
1.241227100869694
1.6341006736964347
1.373576466162096
0.9449619137483609
0.4585562958633782
-0.027705917921729648
-0.1666526322555112
-0.21197752042472282
-0.238893170428457
-0.36394840954235597
-0.6038599033300889
-0.7950136283251419
-1.0263327233802233
-1.0672148310752971
-0.5942909340974418
0.2392189827406525
1.2313072698393588
1.5782700545785884
1.499997394574957
1.2748979307816428
0.7396135141808176
0.2196635018584599
0.026564411081796635
-0.038914115205502565
-0.09544595673939574
-0.20696010797943543
-0.4125495737841138
-0.7080508871557628
-1.018801790139461
-1.2561371145797877
-1.423571915068662
