1.5362717
1.2460549861181331
0.6279447189260368
0.1791524818935636
-0.04502223046670156
-0.20745505963954763
-0.13788121892878702
-0.06115027309345191
-0.11751855187527577
-0.2958609603878449
-0.49785593083744256
-0.7491059646325573
-1.047075827126413
-1.1946329626096917
-0.7827123401364442
0.31963130526573413
1.0987518464023827
1.6485821761318002
1.4086412957560472
1.0339936793349125
0.44330337798709885
-0.04638200569411535
-0.17420452900284045
-0.20761373
-0.20761373
-0.27196489204146346
-0.4191612664163633
-0.6167990045781682
-0.8187939750277661
-0.9792495480313022
-1.081970151134923
-0.6704982429257169
0.03062790840079388
1.1310007699597349
1.668634342238572
1.552177870768316
1.1929662979262483
0.7534435971381365
0.30163627203429655
0.010001605633591149
-0.16135202034370846
-0.20950280050797038
-0.24316863030620176
-0.4150492779412014
-0.5682834639151372
-0.779233550495249
-1.075735397566811
-1.2553089182986448
-1.1955073062292085
-0.701764272695373
0.4648639148328555
1.2022311431628454
1.3950104262273488
1.153619720638219
0.7505066969171084
0.14106226996227986
-0.1551885926979302
-0.41248213473930717
-0.3673618868959023
-0.2824350997576338
-0.2788509492911489
-0.3852482274935086
-0.5393991631304766
-0.7106062830936335
-0.8157637259781712
-0.6175277375591481
0.052579076652265855
1.0400651187005856
1.5589922898819493
1.5383019549460173
1.1737720882006684
0.6878076405810959
0.2511527759129849
-0.0015563914216921715
-0.043134209198152286
-0.046142854
-0.046142854
-0.1319151824304306
-0.34660471433573736
-0.5390185990624335
-0.7690684265189209
-0.9803251743106531
-0.7808886331236689
0.01728210017337336
1.0218805642713051
1.7102375153429334
1.7288540187453572
1.3523944877279532
0.9349382132415054
0.4869611943797498
0.09820710973055691
-0.07605792424566407
-0.14360387022493443
-0.22768204529680586
-0.3562999179255931
-0.5487202086723648
-0.7783494524640904
-0.9988285457285404
-1.2208105295224572
-1.1896651415562665
-0.58650014401053
0.43849390660273085
1.18607672871373
1.2529747173906087
0.9163491575853344
0.4450685302812241
0.07351646475510057
-0.2566493093694317
-0.4857412927138325
-0.53055548
-0.53055548
-0.53055548
-0.6076299356132238
-0.735901865692721
-0.8968104959925288
-1.0613219079310667
-0.9062848359047763
-0.19874638955846013
0.6661507490964562
1.41741655113382
1.4252086817269747
1.0242909144556558
0.6115058282663057
0.23772705043714382
-0.032603592567330836
-0.1797785723105757
-0.22630710431459958
-0.30695212183259984
-0.4327159041749842
-0.6705636751206976
-0.8808016810596984
-1.044538426707125
-1.2129396178090641
-1.1998243653915384
-0.6821803033686409
0.35478679618845055
1.1409334763142625
1.3521670103983954
1.0820653416157489
0.6548009096444637
0.18867408592307108
-0.17061377034651476
-0.37580563386795274
-0.47821469109752535
-0.48372562239893563
-0.5184576939345449
-0.6470345211740853
-0.84422008570778
-1.0314822446860925
-1.1925850994293583
-1.335011664207287
-1.0818459355619217
-0.3448959542019874
0.6304686663740154
1.1384404264330839
0.9876237894171249
0.563870380080732
0.01160221591806995
-0.2858017124434802
-0.6523566430407249
-0.6860224728389559
-0.6836686174602208
-0.6275813462840161
-0.7224517410968305
-0.9098355685084301
-1.0887643480876301
-1.2655552858833337
-1.3170325449911202
-1.0164131116620885
-0.0566604788276831
0.8298581928897928
1.2791955490611797
1.0488495889302194
0.5922334546263678
0.10728936880578752
-0.2779446657267317
-0.5130789849662224
-0.523301185111976
-0.4641287367963007
-0.47690798642218324
-0.5929480488683572
-0.7622807763974956
-0.9540541743370217
-1.160358021066943
-1.3317721976432377
-0.9547308241556212
-0.06611074352571966
1.0103566986108046
1.3776262669052954
1.2019970877730861
0.8157012946260069
0.43098829915006903
0.05083301169485954
-0.2463770675820785
-0.39927036108083047
-0.44982004
-0.5053527476094036
-0.6720674222802822
-0.838167553734035
-1.0932442848312423
-1.3255039031383373
-1.499171392168076
-1.0442863871822763
-0.14058556245669757
0.8355949036256093
1.1982924070598597
0.9644653096362931
0.5085153694567556
0.08289883759378
-0.2873327515913552
-0.5976054556017799
-0.6738578522826467
-0.6305208212261855
-0.6298091726652656
-0.6930982637135042
-0.8188045789260949
-0.9398034845099509
-1.052559387293751
-1.070837181204226
-0.5941270482775273
0.25439651892563236
1.057917908787043
1.3214381237549904
1.0654203732621699
0.5909443742511333
0.13056624853660465
-0.1845650881651405
-0.4447553911450487
-0.47078671027860985
-0.45264401543349697
-0.5095524422379915
-0.6458330924766646
-0.786525171933789
-0.9715878031281184
-1.187461049365222
-1.2877231077485833
-0.7070834012211812
0.28027934187482983
1.0433490388138646
1.5032671388507581
1.2249297015106706
0.8962870528661657
0.39879699643968
-0.11207879710149002
-0.27852357165546593
-0.3690845999999999
-0.3604874406042887
-0.36435264945297197
-0.4732511778524203
-0.6482921214811597
-0.868033537422929
-1.212589402401186
-1.2707378776624176
-0.8468820742808201
0.1644422618678501
0.9415170787837819
1.4056703342599117
1.1197225020511288
0.7569321536826867
0.2359720212430475
-0.16763743779577195
-0.35911327088596645
-0.43570984549275854
-0.38197703669184424
-0.37073264827158725
-0.44385915255364605
-0.5794249943763032
-0.7654979439252727
-0.975400966429676
-1.1397222948225312
-0.7064329670400922
0.18074886835048987
1.0306987462278565
1.4247132314669189
1.1288545260979401
0.5689684304271285
-0.02128702636248822
-0.3242794803689322
-0.5447798025889643
-0.5229043023430409
-0.4555726427465807
-0.5099329288296476
-0.6638949792694014
-0.7726670487847833
-0.9481081144156189
-1.1852685986008789
-1.2195826573391764
-0.6393635272614613
0.32151266903064624
1.431533816840031
1.775636282318943
1.5644713673690098
1.186287839104841
0.7282662551312495
0.26732160907623526
-0.04178264435410274
-0.1826554443617895
-0.22715371469618376
-0.2820960933501018
-0.4125310472373258
-0.6006714630280717
-0.8044788622277779
-1.0247454061692887
-1.230468703346647
-0.9632867887053947
-0.046201860799464534
0.9158768889814972
1.39347215941738
1.291378582438108
0.8994191019902913
0.3187862629271791
-0.06812320836108265
-0.33928358244947576
-0.5117279829783615
-0.5318185540180795
-0.6008895196538322
-0.7236219955247123
-0.9364633602484257
-1.1386566879194224
-1.4026713098066672
-1.5859737120349604
-1.4388875706890971
-0.6322951690618512
0.3786551993008923
1.2550422725972943
1.364822616268951
0.9635253795559613
0.49052172982197884
0.0473558331209768
-0.2285660646295381
-0.3352998525364623
-0.2754183758905525
-0.24742631962853634
-0.3137031555143252
-0.4321504773940155
-0.5926270948383351
-0.7995052668630809
-0.9800217085124899
-0.6513461826061121
0.29865998348851547
1.2908424003736858
1.7208334355992971
1.5541596999394138
1.1658179085854485
0.6811093799730494
0.24948807069203532
-0.0046028346472015425
-0.12154677689323978
-0.19911864117577543
-0.25748756903222536
-0.3873536969273465
-0.5245725672056152
-0.7121184488294552
-0.8819104408510958
-1.1654182470115593
-0.8386051394759817
0.13456198067792227
1.1126174707533487
1.6053368111651236
1.4791378197029057
1.064769015334912
0.5257264976323014
0.1490876615823039
-0.13368946627414055
-0.20761373
-0.2294510117017344
-0.3075899864972682
-0.43312697416983614
-0.5901457527177282
-0.7539299021801257
-0.948358306614502
-0.8841314188078089
-0.2814660138775826
0.6949154715647722
1.495541361807898
1.6108619667274373
1.3040974243838177
0.857918635586955
0.36317069288617243
0.0375578527870834
-0.03845942444443113
-0.046142854
-0.046142854
-0.10287254612459396
-0.31171704445151316
-0.49753794322781664
-0.7411065367545945
-0.7256902283295057
-0.24712284295972392
0.6366262403373476
1.4726325631639097
1.9610153796514318
1.7079375185252164
1.221178315628447
0.780713640134648
0.34322380676524805
0.05432402169837858
-0.046142854
-0.046142854
-0.0638564944586147
-0.1402913372345337
-0.37472487425887313
-0.561194077374326
-0.6764824255100814
-0.5467238577744553
0.17733960674151078
1.038836870476302
1.7155166621562594
1.7394707782748233
1.4187833385606965
0.9536727927332946
0.4550189580608088
0.11131694879216958
-0.03247572682141307
-0.05923064789586551
-0.12482556509785145
-0.2678231291614054
-0.4473966582330323
-0.6551730790852058
-0.8756590377038608
-0.9432410235547628
-0.6667426215831289
0.0539213120104164
1.1199834371025876
1.537159550711416
1.4429480226566618
1.0860946031265086
0.5516069204537284
0.21882972789493538
-0.046142854
-0.046142854
-0.046142854
-0.13139653006393381
-0.27869299537830416
-0.4017462131493606
-0.52601182904776
-0.6962400615537004
-0.7411502797721897
-0.172351461130231
0.5536403882643579
1.4780431886106455
1.7569038611247532
1.5059645352372777
1.1523035745094088
0.6518721842901356
0.270103044179615
0.04570535447744191
-0.0271759447241657
-0.055521786557571305
-0.09900165356691541
-0.2560864124698662
-0.4230712547419654
-0.5807107826943316
-0.7403483361306071
-0.8318142425944216
-0.662933747999111
0.160841829839934
1.0086835107698962
1.467187597404207
1.4800553958699918
1.1619469699293377
0.6796695401954256
0.24006509160827952
-0.12846241232825054
-0.3079686142771187
-0.4048583710817897
-0.4699918025583256
-0.6361788286347849
-0.811706186923109
-1.0026514251895293
-1.2085640994032172
-1.3297320329656
-1.2792541683220187
-0.7972669538657765
0.19348476448118657
0.9329306193165312
1.141620774644153
0.9543494823063492
0.5356070628038495
0.1531236631223478
-0.14246192989932424
-0.26359196558412135
-0.28834917
-0.28834917
-0.34034822254263525
-0.48249975887671753
-0.6323386241138196
-0.7702432518084096
-0.9054048377727275
-1.044290920588197
-1.011767782867703
-0.5981496461016795
0.18955727922586557
1.1084592486568614
1.4657109778863369
1.3070340878798283
0.9306220249456028
0.4905728316464137
0.08646334545628155
-0.15449741600628733
-0.258219544827552
-0.32825967388847477
-0.41584625958656685
-0.5466200357889296
-0.7109413397581007
-0.8897751055603216
-1.1030896499180811
-1.2494063043580559
-1.3508528934990311
-1.4512916464282162
-1.282962497437066
-0.4278401794963772
0.7986018245641973
1.40020276315227
1.3393482334154094
0.8589665884049289
0.592182377682534
0.1985094540114973
-0.06927029560366489
-0.18103433866230928
-0.20761373
-0.22237848255948325
-0.3121315835339261
-0.44778198282181525
-0.6507696328570287
-0.7760043163577444
-0.9443334570091049
-0.9813639803170393
-0.500171283747124
0.3413185015106922
1.1709541417246259
1.537884486799293
1.3078346009973563
0.9400720154990155
0.5108292514241068
0.11351909126980725
-0.16686500190829
-0.28734538671016524
-0.3360234358893682
-0.4466442461980455
-0.5941727958991921
-0.7761397900550928
-1.0025215547104491
-1.2830252293744562
-1.4182262024474108
-0.9989936003297848
0.10825927521166037
0.8376631148312363
1.1957696576433492
1.1163079054415317
0.5892807043420382
0.29753263291798315
0.057397992634591666
-0.1828134175572537
-0.20761373
-0.20761373
-0.20761373
-0.28525230349285813
-0.477419578884746
-0.5757908577621984
-0.7676188508343761
-0.7980903840943283
-0.49240423465963534
0.3696031901849067
1.4019995171700836
1.7940510374059166
1.6864212383250201
1.2958645335104144
0.8051150862147445
0.2972189856432198
0.05038112643303427
-0.029438433847170747
-0.10251215611186582
-0.2259726120135817
-0.4072120647684836
-0.6322038900177233
-0.8731646514802969
-1.0941276322142994
-1.2987519622371784
-1.266539655451233
-0.6914471380689653
0.2961062811408046
1.3472262523700989
1.7497626739395113
1.54926898090427
1.1811892531746673
0.6084989825648318
0.14646148678476825
-0.07431423446599174
-0.19420133819151397
-0.21829132341223745
-0.284750101034523
-0.39796964191431505
-0.5712885683230966
-0.7989300623983739
-1.0635659574285892
-1.21020443505954
-0.8737936810219903
0.1235276804577426
1.166333930546714
1.7871865749348428
1.7127734639836203
1.299412771448423
0.796955401446289
0.3466493556351158
0.061232444873777644
-0.046142854
-0.046142854
-0.046142854
-0.13207059804998617
-0.2884165822075546
-0.49738767245163706
-0.7068740188865194
-0.9423611792631909
-0.8031473313002523
-0.07582318088249729
1.0450898108659752
1.9144498210921261
2.0386684860204616
1.7246442049454256
1.3243092205228892
0.7786159642268486
0.43500242698481834
0.2158436995371053
0.199010056677661
0.12637679858396203
0.04221222659032371
-0.17906827778817228
-0.47983879246546
-0.7640003776572777
-1.0050268550746209
-1.220905908032616
-0.9171991626143887
-0.18320878143071262
1.106055826366493
1.8412704836430918
1.9507592364958874
1.6085582922641217
1.1191086625461735
0.48000679224493664
0.05329685024791872
-0.16144164305717207
-0.256043395482694
-0.3006315687506725
-0.39487920618635586
-0.6286088441391136
-0.8668311415637943
-1.1251284375793968
-1.4209068156606048
-1.6307091946313423
-1.4047044082672746
-0.656517139489578
0.4738351676535747
1.5769117027943198
1.7115750386668196
1.4124191629258607
0.7509891004449499
0.33353753432874556
-0.0032736279409964833
-0.05035484009402316
-0.08402066822429885
-0.16077399552046143
-0.292744663143243
-0.4680426319988882
-0.6795298649558408
-0.8892304662051268
-1.0565137822722859
-0.9081531179205755
-0.03954814812860108
1.0283173817498072
1.7405687595520154
1.7444674141892533
1.3588050583647613
0.8792119554293335
0.37430489777683573
0.027228612125943047
-0.12645655147941373
-0.21229485267086357
-0.2459606824691002
-0.3808907005479082
-0.618068254943985
-0.8527159341918291
-1.0688645277084585
-1.253395953821264
-1.373847784658227
-0.9924688906596663
-0.04184509166640216
1.0434813736363622
1.7364816561692602
1.6874625530236014
1.3206542752365995
0.7579588810973057
0.2998536245874661
-0.0007815070563810256
-0.22559487718470692
-0.2855546411688711
-0.3588223769559697
-0.48864249470338594
-0.7390320961435426
-0.9757778295731823
-1.1998318072915903
-1.4015551808793356
-1.546224553495513
-1.4276565114105566
-0.5904844183598282
0.5367735868617554
1.391619938453321
1.5374157539514792
1.1859158622757222
0.7246586399192284
0.26465630725397904
-0.05719129442160678
-0.17089283800302893
-0.1550439240625633
-0.1407864790485458
-0.23831240356774616
-0.43422637074727716
-0.6407860666539984
-0.8432793105948899
-1.0740173736670477
-1.2398076774693438
-0.983299326843875
-0.1175808470313563
0.98781405189614
1.766738643493654
1.846529094966487
1.5276550404103701
1.0726382022069474
0.5835030825335613
0.15894662808917276
-0.0266189703796995
-0.046142854
-0.0778862493472
-0.23729666428408747
-0.44055762881148164
-0.6594508844811484
-0.9273668105689005
-1.0942939050887528
-1.3335058931274477
-1.1327830370091794
-0.3834778505292915
0.9608218144206886
1.838355342681453
2.053049744545941
1.778134579681213
1.1669574522473583
0.7760278844802709
0.2599763167276423
0.015484033102196853
-0.046142854
-0.06352208125947771
-0.13011218644006256
-0.33135401436770257
-0.5604249114807731
-0.8716492719236469
-1.080209155308188
-1.3685522883524772
-1.4309634013961534
-0.9087708611297036
0.11876312418736545
1.199193164462165
1.859101702943241
1.710126706859757
1.2917515506791815
0.7785747118827966
0.3095150169060388
0.11235341798414919
0.06682954835710894
0.10716885212262425
0.09024176154011376
-0.056046627349628744
-0.23833536432401764
-0.48906804902648576
-0.6651411609889836
-0.8828489196600808
-0.7437225606463667
0.19173270900895
1.112924074722619
1.961534092420892
2.309104534249612
1.9827079274175634
1.475239450251617
0.9722050756270697
0.561303930080622
0.3037887882679437
0.27679889
0.25309903610359114
0.1361653099761331
-0.07556747359580179
-0.32983365455780606
-0.648259992297461
-0.9149455536908241
-1.0311952184202338
-0.7139609749892062
0.20750628084978512
1.285199253868337
1.8637142291669815
1.7907952587276468
1.4095862014712932
0.9106549672550059
0.3861385945742925
0.043774390655854256
-0.14519928132023655
-0.20276462888021257
-0.2748307458596039
-0.4111099167278609
-0.625661563428284
-0.8741646562057886
-1.0703482064703405
-1.303261943297737
-1.2718821460875163
-0.7027751845430448
0.4134167008589904
1.2614169149130818
1.5317702471153274
1.210338677924315
0.7453958279572539
0.25982773354848726
-0.050752799693624895
-0.2567710612499068
-0.2656754792493479
-0.2223396921257241
-0.3027588003094208
-0.4239628237426178
-0.61444408040742
-0.8209629944487986
-0.9936681025155435
-1.0062991080190522
-0.5559522699978177
0.4079424339539866
1.2666889923933469
1.6113125283829348
1.4546511898888212
1.0588026976224094
0.5842118612080088
0.11975776179924678
-0.10459095552937762
-0.17866306619160893
-0.2451739984826758
-0.32995820036018303
-0.5094856393315512
-0.7255468357467025
-0.9196848834302889
-1.1112115566392005
-1.2203809231401124
-0.9418119179658306
-0.188101829763343
0.9141429157604128
1.357842778528102
1.380775655075247
1.0569938400134409
0.5416062901013827
0.17781333508518427
-0.13593203658036268
-0.3713916315831125
-0.44623746401700787
-0.5160273173938255
-0.5858171707706358
-0.8140056720779305
-0.9847459452720528
-1.2495117052570166
-1.4545629850597535
-1.5367937035834554
-1.1676723729119651
-0.4336819998695125
0.33224493032781627
0.033841691428678954
0.01324807449651811
-0.007345542435640541
-0.02793915936780139
-0.04853277629996222
-0.06912639323212087
-0.08972001016427954
-0.11031362709643817
-0.13090724402859905
-0.15150086096075766
-0.17209447789291632
-0.19268809482507715
-0.21328171175723581
-0.23387532868939448
-0.2544689456215531
0.03953518026939401
0.6114681880380379
1.2150870024481606
1.5708496097115614
1.53298742517374
1.2860821948067134
0.739418580008893
0.4027602903663464
0.07718412619498682
-0.027614122238801945
-0.0725243373966346
-0.14251984315138905
-0.28137012467648703
-0.47567576550722007
-0.7172877461178236
-0.8226571974606711
-1.0196598438454374
-1.1741846377013112
-1.1517631963233377
-0.5208999630362804
0.3192897864595653
1.2942410023767992
1.7574358748881704
1.5598643564715493
1.1094310130644778
0.7008651962404803
0.31648586063676576
0.01925521239130678
-0.07106229408914748
-0.14648989555697378
-0.29395383031540834
-0.4959488007649989
-0.707874178639498
-1.0373535296319263
-1.131412953684724
-1.3067109143991273
-1.4670372069815927
-1.5052933912240316
-1.1933561665745813
-0.4410823190156012
0.5667331104763945
1.1967547241560477
1.1967504467316987
0.8633189004980456
0.5490820605732643
0.11575939446069602
-0.12687829
-0.12687829
-0.0905961286350857
-0.046142854
-0.16748822350971299
-0.3529234107188182
-0.4898359267317328
-0.680085564483437
-0.8827265971993037
-1.065949426956667
-0.9481190059832697
-0.07608425523553053
0.7468637308225465
1.499549466878771
1.5830616514303375
1.3174633379803262
0.8992312752250641
0.4877835188798204
0.10725694431208518
-0.02993509983773564
-0.046142854
-0.06479964702925328
-0.16033707184101142
-0.3176674331600299
-0.4856200289832837
-0.6691550099868423
-0.8304451862545372
-0.9940459181150945
-0.9086485177537807
-0.3033132260506213
0.6256161910564307
1.4310950181311148
1.6443437923944342
1.3589901168915182
0.854270357551435
0.43155548998908144
-0.026494325463998936
-0.2598963197325147
-0.40384886371273043
-0.5166218478253664
-0.6306574217450467
-0.8052933209312408
-1.019517553814791
-1.2208579990091322
-1.3841616152729588
-1.525155175201566
-1.6380165468116803
-1.195861707968618
-0.20122526182367306
0.7647998360887228
1.2337487327848156
1.1795770784436075
0.8352676397430812
0.43055053764051293
-0.00013548146519545834
-0.1961287409100753
-0.27839645738765295
-0.2706639714515792
-0.27655982040714483
-0.39016295399768824
-0.5595251044933552
-0.7851551472441995
-0.9258167299248177
-1.0809623287515702
-1.161136432217214
-0.7895106447512077
0.05832613221745221
1.0907223983221823
1.4944120399428196
1.4283311615981256
0.9874397317119108
0.6369095425203837
0.20503431049096765
-0.12243240771607199
-0.21574552799474916
-0.2746672400393115
-0.28834917
-0.39796074619657806
-0.591128482302842
-0.8330795875796635
-1.0539711118264048
-1.2518870160512248
-1.4601076546930516
-1.3108012958305264
-0.3705871674107731
0.4598141641052639
1.4603194115991747
1.5807998289659666
1.2736621090953866
0.963936478287553
0.5346091588113986
0.17708168982011355
-0.06446810672585532
-0.22961430761312662
-0.30424206765837564
-0.4165181355642755
-0.5810921499865735
-0.8734878787522404
-1.058771345334977
-1.2354517745474276
-1.349416191675069
-1.4264315597592991
-1.157734326235917
-0.35587780004787617
0.7396194840610287
1.4057496795666924
1.4463797857588143
1.1170284076457389
0.5920539827806806
0.23327723646375398
-0.008042486632600016
-0.046142854
-0.046142854
-0.046142854
-0.14852481190493466
-0.35361699761144283
-0.5192655892554481
-0.6866426818409609
-0.843638992972806
-1.0148978505745538
-0.9075412656945983
-0.25879219276705334
0.8306865148540694
1.6048452363928123
1.6807616107821957
1.3628816874306735
0.9379630109360623
0.5077416457750149
0.10933261790408014
-0.04456179547637526
-0.11445382969914193
-0.1456727267954701
-0.2505218670442231
-0.48940091061832447
-0.6692385247621178
-0.828835490850611
-0.9946588202135199
-1.1212666708671513
-1.190256834975727
-0.9362032961055964
-0.16765286932647028
0.7234549892450648
1.4295575489406673
1.4172413013028167
1.104822684478339
0.6496235195448199
0.21461519162926407
-0.09868262810630878
-0.27293603646607034
-0.3495623614162134
-0.3814692314072893
-0.48535390760278146
-0.6420066417162544
-0.877581020613387
-1.0616475840057833
-1.2485558703685973
-1.3778735984061905
-1.5756344659824584
-1.447967007600741
-0.7707943721039732
0.2930434333486338
1.2622585227110426
1.3980837611183419
1.201116749796762
0.8644585018531046
0.449430008926672
0.16351093725224325
-0.046142854
-0.046142854
-0.06609311042341336
-0.16326385803370216
-0.3647018574653188
-0.5692735423515568
-0.7374711668978229
-0.9033542727395087
-1.0367472919086678
-1.111629471277618
-0.9503976018312984
-0.24177053186490993
0.7882244877653032
1.593834800335546
1.6823013037204304
1.4291139154820165
1.048548061045032
0.5659820637893951
0.15721972909816825
-0.019717318035336318
-0.013102581054912618
-0.01605179513912186
-0.09703127814873595
-0.26596082845703656
-0.4954860403200858
-0.7042000246136408
-0.8051975140083203
-0.9682386579868908
-1.12844495552482
-1.1270024881033835
-0.7439468306575877
0.25138877343579413
1.4189624858114291
1.7539418627437278
1.7264550677283905
1.3949735836129142
0.968494890892543
0.5246830840480032
0.08042677626618505
-0.028607501622829483
-0.046142854
-0.08672620216557064
-0.2594447968703533
-0.5276183802765604
-0.7802226185227179
-0.9226563249562476
-1.1729104726941357
-1.3623485238071835
-1.5251266134988106
-1.3922183348576789
-0.6858572619369305
0.5155169378678104
1.4872770012047256
1.8087862877017737
1.605539409377404
1.2603407159368665
0.8472602253015175
0.413306789499834
0.23668961511707542
0.19606346
0.19606346
0.1539698198898599
0.021901734077181656
-0.1646999699817158
-0.37352656315233657
-0.5738583374867439
-0.7607763625341524
-0.8068189514997066
-0.4373659589003697
0.5613645132672224
1.5051462082250273
1.9684208011948616
1.920859573348484
1.5363783321083737
1.0762786419167338
0.6161790198216595
0.2453750933169278
0.146002061012105
0.08839215244161724
0.010119452644699344
-0.09436625926194822
-0.3194485322307854
-0.560852504439531
-0.7298405367337699
-0.99933465458624
-1.1208590956482882
-0.8508991868360916
-0.12920747968267027
1.0236379998605685
1.8203735599569073
1.9995433013691357
1.7871340871374566
1.2873137886471293
0.8220271058403787
0.3974416285124518
0.1235563017336479
0.01269745970525342
-0.03607856424743093
-0.12759976543064777
-0.3893760481513333
-0.6856258645020564
-0.9781142464134829
-1.230529903428069
-1.443993443843581
-1.6900584408330908
-1.4908054796198473
-0.5045843591240736
0.7435513161466928
1.6116346794543197
1.6710464892320949
1.4005116060942935
0.9779287046783391
0.4849667987175507
0.1820826398819384
0.05148403842960164
0.08030768610349089
0.10110744981807522
-0.007732346329969789
-0.1592536949879744
-0.3975359539349584
-0.6357903451248856
-0.8481969039914612
-1.0798881304775432
-1.1364457232840393
-0.6171079898530087
0.3276980459980463
1.2692683622811145
1.8769418438299368
1.7945723914829277
1.4179018159686807
0.8487142862191934
0.4373434685420754
0.11744279248268875
-0.03498505736952168
-0.046142854
-0.12321160103921648
-0.3072770955615872
-0.5435268139760112
-0.7845533076758269
-1.0833098079064685
-1.2835960538448077
-1.4336525467086327
-1.3888253518087628
-0.7730823159008128
0.19890560790375078
1.5711437830742434
1.8669221611554572
1.7830138372750426
1.4421936632725942
0.9890209771056343
0.5412656461658346
0.14845275822446719
-0.012376542025694381
-0.08912547015415359
-0.18836622472177733
-0.35515438919695547
-0.5920884631694596
-0.8950809230138801
-1.2005096717628174
-1.4298133983740329
-1.6205639887431769
-1.803649760059253
-1.828613088927784
-1.3077891817393101
0.09403304195756851
1.018977354938347
1.6663875807207187
1.5882975112178912
1.2485934468327726
0.7819209074133852
0.22437273760523885
0.011342919263597519
-0.046142854
-0.046142854
-0.046142854
-0.1192511538462672
-0.27615731723482934
-0.48958347409850483
-0.6719665985982711
-0.7964454257468818
-0.986928827112458
-1.1200997004290143
-0.8463519676753573
0.056819658734363676
1.3111510146070589
2.0207159676718565
2.0667259692559226
1.7894553772171529
1.3489178658886622
0.8232919006410817
0.4645740294723463
0.2692421427115849
0.18945685358432296
0.11719700512000117
0.007176626782959449
-0.13967241122273188
-0.3594689487349148
-0.694780966886925
-0.9751471645140724
-1.2522215796586218
-1.3902258295769352
-1.037455969134528
-0.10273913203979751
0.9518902123282337
1.702174825194487
1.77905180207113
1.4805750093867143
1.0498741713788706
0.5871689283083895
0.18182113063930083
-0.009668085277351246
-0.12274138588141062
-0.20458533640122628
-0.32589460372157175
-0.5561047420451644
-0.7971312276037149
-1.0629963547373948
-1.2713695238429898
-1.4698813023711172
-1.617051201640009
-1.5028942145509496
-0.5377622033595486
0.7088821048986339
1.8374676374480814
1.8866262971453238
1.609013749695879
1.2994755162968719
0.8943760383793814
0.5352289802361083
0.27679889
0.27679889
0.23809177580668808
0.0785283920904686
-0.05770309595390788
-0.31453690978784044
-0.4547642141761339
-0.6725044112185293
-0.838796946124481
-0.9496804505851124
-0.6378879798866196
0.26950625415396195
1.3534629296201173
2.1404867370555705
2.2568698236179223
1.9677361727738092
1.5618428973041012
1.1325374023909096
0.7768551217452218
0.541509391635826
0.40279814100827543
0.2793539087280238
0.07638611975725254
-0.15746530982268267
-0.4313754749606993
-0.7092646950702537
-1.0167406189311587
-1.2661652236531882
-1.423094621756195
-1.1478468015122438
-0.2945107922686203
0.7800778688789647
1.8999847904118388
2.070912184956632
1.8403579078647958
1.3339936844981009
0.6426257223104781
0.27014218706362414
0.0345925829999999
0.0345925829999999
0.028898951459170874
-0.016939814335483437
-0.19488040653108485
-0.46620640062069574
-0.7729614110234053
-1.0344863694925985
-1.2499083680079108
-1.4301476103156041
-1.4753867803288303
-0.9367335535956396
0.15282739909228016
1.187681092702725
1.6849878996301026
1.6029325451300696
1.1886614918074636
0.6956976043235255
0.28883343645212234
0.04330098652954724
-0.046142854
-0.05121049825624027
-0.07367692020028314
-0.2756718956537333
-0.5354813374974225
-0.7938330946995492
-1.0449492925786037
-1.3463588756812988
-1.540566022931547
-1.39470687204327
-0.6416471202430816
0.6910558317204117
1.9980221832118497
2.1439298908250475
1.998692556401344
1.5950138399201355
1.1945557977103354
0.6854447900581787
0.3258414539468802
0.15973425846246556
0.0470853393383691
-0.02681010640340349
-0.13066664558166075
-0.4494636326265493
-0.7646600350707166
-0.9800251080968904
-1.227651715147466
-1.4941135711477085
-1.4328432977134193
-0.4686430299493494
0.789019490391073
1.7211551514985393
1.982196952430705
1.7892229238278587
1.3811128764400487
0.8586394273567405
0.4020636113225009
0.04599929200372661
-0.11871824423902272
-0.2031499403515849
-0.35419463326619244
-0.5594938484727034
-0.86798328210326
-1.1488477542845554
-1.4026573201679498
-1.6429617301007617
-1.8658234759957968
-1.9322241545109806
-1.3874425079613415
-0.26609359443748315
1.1498886415151033
1.8282406730169436
1.8086979823799267
1.4237381648236052
0.8676857207071513
0.433465698681641
-0.011469993996071855
-0.08743458958296436
-0.13056893205773043
-0.19135313764826659
-0.3585156433126643
-0.5800364006222831
-0.8026191298344546
-1.0677026884380023
-1.283827891823322
-1.5938945254194452
-1.773449196301133
-1.512653727011108
-0.5966417524793522
0.6332504566125394
1.5535031827667716
1.753031192002228
1.4760335558990154
0.9556031440327918
0.46843879819040046
0.09092216067380245
-0.13886395185974626
-0.23473424885779343
-0.30202129426648083
-0.42967259218739545
-0.6204550905527426
-0.8765768810193273
-1.1132287835289512
-1.3273588282411781
-1.5528407299255842
-1.7347344929561175
-1.8089395795338892
-1.454228411098296
-0.6031685119155678
0.590672488347175
1.5827094074931134
1.7127704446732057
1.4156109235399266
0.8479705503142285
0.4186417951026514
-0.026300367510800723
-0.1890409866871654
-0.28834917
-0.28834917
-0.44518937472298814
-0.6404511825488972
-0.9290558625122193
-1.1591057157492228
-1.451146971856165
-1.63979805759403
-1.8284856921004253
-1.9610469131309818
-1.952008020789087
-1.4859261422224472
-0.16597422657958327
1.1879126736315972
1.9634725858356388
1.8100577364065702
1.3756201316946548
0.8557518827207878
0.37820998270903833
0.09764760519405773
0.06230299705312453
0.08089470015321082
0.018266301603791606
-0.1300676991241052
-0.35081132796333636
-0.6201379580093584
-0.8987740103538745
-1.157981849527849
-1.402331201022872
-1.6190782172508953
-1.7348013978982904
-0.7556710822008714
0.7772245073109676
1.6864471739604647
2.133714
1.8898326681814301
1.6269186176521901
1.026382812627712
0.6551762921534006
0.29418208620580577
0.1544648760079541
0.14506874645965726
0.11512310538526462
-0.0018079929754135637
-0.19592373306490318
-0.4368713527758345
-0.7237250841934949
-1.0008698281848465
-1.2537934035336007
-1.4601623362978697
-1.2134868988504257
-0.2818405959112646
1.185611663334151
1.989770903896705
2.2598695780465277
2.0183978987265263
1.5730378141251604
1.0281734399681997
0.5818711252886326
0.2843417445692812
0.13945523440949242
0.059218352172740935
-0.04211860208816694
-0.22399347482573467
-0.49794855072167354
-0.819806679212522
-1.0981435867025073
-1.3450488170695076
-1.5394263056594848
-1.6141649145358212
-1.2223233931147661
-0.00831418515641047
1.1631973489155116
2.2145955720117754
2.2235675405829105
1.8180576878411507
1.3475235020847744
0.8594807514500626
0.5006560373596454
0.35753433
0.35513230677620455
0.3105958477637826
0.12782655086319528
-0.09525364755145371
-0.3759632191559122
-0.6893332542598913
-0.9495096138558595
-1.237956936745047
-1.4202421736068935
-1.1956684486130613
-0.27538892051605046
0.9697223479395165
2.0283816805566213
2.3046778495570646
2.081203417404795
1.6370984345089532
1.1290732953409381
0.7487209390457299
0.5082871700009431
0.38382717348500867
0.3171295512104256
0.21513116600842813
0.02840235788916068
-0.21140141458673745
-0.5085468819389147
-0.8068702238853402
-1.0673039612143946
-1.2672064542327015
-1.1780258164164237
-0.4054200855469722
0.8508854407877966
1.9091959328119086
2.322757218219629
2.1224813017534627
1.6571261208549164
1.0612848772542183
0.5814929974036805
0.23619149085903896
0.12983603483370268
0.1053435669133479
0.025631082507621722
-0.13801495234529276
-0.3854420084864292
-0.6981205729158712
-0.950339875814403
-1.2026792858944448
-1.3427362154708384
-1.3219802642864709
-0.5821437960747393
0.5428100615383197
1.6424710707553374
2.055021330819444
1.931173691169725
1.522817339636768
1.008555951643316
0.5953583957600976
0.2950052712246386
0.1424607500077094
0.06784957924656751
-0.015302456098781711
-0.20027953132402426
-0.48075249269030873
-0.7818258684629897
-1.0402592303916005
-1.2583798421728067
-1.4983566488340518
-1.4738964203437677
-0.8880370394765209
0.1263314346500798
1.3461480342956773
1.8746963560460517
1.8167554453158683
1.456532094883584
0.9902148670549362
0.4720302921554943
0.18587074721035896
-0.0272328089110526
-0.04406572381016942
-0.0767985204940578
-0.20936095272414146
-0.5554069978766832
-0.8577772293619006
-1.1223115612215055
-1.3938960884639429
-1.5892605993052136
-1.7793496068158072
-1.5717372062671289
-0.788659634045925
0.3439187496479119
1.330910165360045
1.633539074975149
1.4511347713184612
1.1079669191368167
0.7127128403615666
0.28381940458086763
0.0032483919522833804
-0.039880831960450794
-0.046142854
-0.11798724759236118
-0.2917764058374362
-0.5316660206650493
-0.7561497679551776
-0.9759482738657681
-1.1769623665402198
-1.327297173643909
-1.3886573405686158
-1.3017549584962331
-0.4712863415562174
0.523165993237608
1.2528877857512297
1.5419903856578483
1.37008815029113
0.9084197500898128
0.4758842538615998
0.12988958273681844
-0.0513196541011122
-0.12687829
-0.12687829
-0.23597219754414625
-0.49982877663200953
-0.6674699983138579
-0.9050358603041174
-1.1203247087276809
-1.2707534324241423
-1.4575707178493424
-1.547367145251163
-1.30314299588057
-0.37442098260966294
0.7815797819105549
1.6690234011798075
1.9972539092451602
1.845779887596463
1.4680041666154118
0.9947877960240181
0.6010147443991771
0.3132522179390307
0.15002876410188448
0.06067696269280225
-0.020606213119244023
-0.20699804283723633
-0.47984005806374047
-0.7445662390610874
-1.036218024875002
-1.3308314958611043
-1.6381329313998267
-1.9697410169811835
-2.1291008515978893
-1.6695732816241038
-0.3344621166973891
0.9386451197480032
1.6044885212989808
1.7227281920361208
1.3855293999748277
1.060115473733112
0.5389004649561914
0.18091466894697042
-0.02906463254470759
-0.14579481965016422
-0.22702912086445323
-0.36939709506077123
-0.6276675722994169
-0.9231388389270511
-1.1962781713325104
-1.411826681160255
-1.5734227008868513
-1.7306942592165997
-1.901612071642036
-1.8208594114941554
-1.1841771188931915
-0.08079882650754955
0.8528519890439039
1.6770309285681635
1.5665564753903047
1.2353514923185256
0.8698192697999707
0.5488804814909771
0.28653768141716235
0.21920603016051107
0.2575869713343862
0.16876358444249295
-0.08396323853365004
-0.4648558137763422
-0.8810732984616937
-1.273886211422486
-1.6486476208071226
-1.9408857390841012
-2.1448692041189363
-2.2069872270134
-1.8029973027938406
-0.6708707569747505
0.6106986060588698
1.5084830322073641
1.8018465399561405
1.6291269012464906
1.2677579729944088
0.8690669876399416
0.5176373460691603
0.26549576124180285
0.12756086038633752
0.06764381604055296
-0.11856508709253732
-0.4177203903475822
-0.8322516306632505
-1.2360453081235814
-1.5120345248566043
-1.6803636738477368
-1.7610820292634624
-1.888158525343508
-1.9806218689553416
-1.7109508055007736
-0.7375256525137438
0.6646609179018959
1.5205164952533523
1.6622153039406142
1.3303220646385885
0.7227857005712035
-0.042251158149673174
-0.12295805185251232
-0.20366494555535147
-0.28470299038882674
-0.36894143096911114
-0.45317987154937767
-0.5484031791951418
-0.7674763431221105
-1.022734693035918
-1.1939761694728799
-1.3228014379825868
-1.4210515826454613
-1.3422053030631478
-0.844800517375704
0.20245206447210395
1.2791704169493419
1.7886561575861442
1.8212094864448651
1.5055772406352559
0.9863069703125813
0.5455133660358058
0.24228953254446797
0.024244989260398437
-0.046142854
-0.10831196915392369
-0.2617950734489215
-0.5527637151157287
-0.8038597807306274
-1.0888178740394443
-1.3798218800338014
-1.6288624164935073
-1.7876601058364057
-1.7701105591571422
-0.8206931067010734
0.256081242083747
1.350887505578565
1.8279996222610557
1.5595847010792319
1.2235923572579743
0.5037272627308663
0.021390069103394582
-0.12734140638099595
-0.20761373
-0.20761373
-0.33019347465860494
-0.5885673149476327
-0.8912898007830872
-1.1104379455127384
-1.2021460511402562
-1.277234313755934
-1.352322576371596
-1.427410838987274
-0.9580132698857672
1.2425537119110668
1.6990302907882346
1.4927530072497721
1.1670718269625076
0.7192783941795617
0.10059321735423944
-0.0756088443580053
-0.22581739801269524
-0.303250366291323
-0.3684345089330329
-0.5094561610328782
-0.7755018981125352
-1.1134119600510184
-1.431567734416364
-1.6769699651619716
-1.8507323964614724
-1.7785591805366572
-1.1058415273928333
0.19781801241770536
1.264998492195919
1.6627841
1.4992355953274143
1.0734813053181653
0.5563950137858124
0.10589130360820848
-0.21658716083034035
-0.3236061697310956
-0.27536782878689686
-0.21619983026272083
-0.30595293123716366
-0.47240492395786327
-0.6955562685118932
-0.9910828219243863
-1.3328703840701528
-1.639127749329814
-1.762546713461623
-1.1294044485596468
0.08434039643808866
1.4069301668420038
2.2975589141022206
2.3085355627062167
1.8046932028986764
0.9893258033430266
0.5827474768061884
0.3039188254083096
0.0345925829999999
0.0345925829999999
-0.037002254762777326
-0.20520954538695266
-0.4427884609824282
-0.7047908041311994
-0.9834311839300579
-1.3448021331765998
-1.5425581997854576
-1.8355240470585135
-1.802659800918882
-1.042401660701607
0.15747817523944807
1.267123511930637
1.8097221090548188
1.5403955207075832
1.013939561213773
0.4436047142329656
-0.015699149054230727
-0.2745533755629182
-0.30968421798066637
-0.23117550542646492
-0.316542165620318
-0.5177162394969066
-0.8094884687425907
-1.1650157735094122
-1.5484760224900462
-1.8857146275116916
-2.2223729078577357
-2.2185108590104843
-1.5660470463755658
-0.15024299506719774
1.4491291661627483
2.0266165405563745
1.9066830263783179
1.2515067755627307
0.8461589616114219
0.30263580493303976
-0.005032557083438721
-0.15396936661943583
-0.21099426904413598
-0.2388951209817419
-0.4141273576001079
-0.6617675514954473
-0.972846434611921
-1.2625752163119697
-1.5178176095953053
-1.7850724655415837
-1.6504091296691175
-0.15777725052441693
1.0571227542540689
2.2284339871673224
2.4416733210178236
2.164497395184378
1.7436996608104594
1.2239549929124016
0.7180864383988393
0.36336942906711966
0.16137445861757926
0.12240161201003494
0.009328802153227275
-0.08817098861181658
-0.35749761532209456
-0.7555027466879561
-1.1720523544993804
-1.4862891277058436
-1.7653109737648034
-1.0416457935990358
0.024325944236122332
1.703413333686605
2.2284132185275
2.2178882590077706
1.8207800240767793
1.2866379230628295
0.5982444657134505
0.1845372334251715
-0.019129657964853747
-0.046142854
-0.0566880314591649
-0.14010077930703752
-0.38685941308016175
-0.6976148304958854
-1.151368800814632
-1.5145747482433787
-1.8483136711910122
-2.1906561484831784
-2.186700657111594
-1.320244206357319
0.3440718399674184
1.7852100770279642
2.5323515721390515
2.470580583558793
2.0135488405620636
1.3672304233363277
0.7336103736634355
0.44629016910342184
0.35753433
0.34668428282349667
0.30002554217362043
0.13169640152224193
-0.1121109273675715
-0.4136494591078602
-0.740633522808483
-1.0712564565312268
-1.4062993198625668
-1.7092918047261203
-1.8884212062589454
-1.4308674153500682
-0.3004237477396564
1.2240987104622503
2.4360685581792922
2.3985928778819994
1.988736474200541
1.4289183530198344
0.856059482714106
0.3749797854644026
0.16681755418667216
0.15212822935516498
0.12576423746468834
