-0.57122346
-0.6000809855096517
-0.7527765906541322
-1.005798119463502
-1.3015106324038646
-1.474768005956229
-1.5212039356819569
-1.0954646278034934
-0.17837099096456216
0.9352501228791897
1.4803687311620624
1.3101529776039316
0.7927408358420517
0.21823185262634884
-0.20998586677642683
-0.4809650533580181
-0.5811228911271934
-0.6487068165508559
-0.7717238509366758
-0.9899132304096531
-1.2303926176492592
-1.4384060826489915
-1.578534363682828
-1.3883576552459864
-0.6993581052272828
0.5077310060793012
1.4000101884209522
1.6303075473990363
1.3619224953365903
0.8274159062843583
0.2903773878803718
-0.07590198159767919
-0.3835637437543153
-0.45046885823810534
-0.587258729246987
-0.7755751198313375
-0.9655129137552695
-1.1901682513760994
-1.3547722355042346
-1.4040411814963227
-0.9879322421598442
-0.1863183636186031
0.8443633910254456
1.4371574817430584
1.4947848539489852
1.100752625716403
0.5640916827867952
0.12067119014536387
-0.13626521296519253
-0.2492893720627905
-0.3009177359858309
-0.3834746560755492
-0.5723225141095518
-0.7990497102151713
-1.0634723994207795
-1.1966315935705307
-0.9434248318464474
-0.1460282189245963
0.6176404030155351
1.4344877835648422
1.3175066785074636
1.0770272992603644
0.4703479203476203
0.13314808893501776
-0.07981463668905427
-0.12591961
-0.1381759973394363
-0.2479683822437158
-0.47113728364967034
-0.7105000127583584
-0.945612363234693
-1.0547884748427077
-0.7584481959922773
0.11017586786068495
1.0959711711020097
1.6368953527078078
1.5565040102301375
1.1300635175122635
0.6733753573419794
0.2709945766382589
0.04695753452132057
-0.0055672126
-0.02020301524997607
-0.11539503540017584
-0.3698584303491973
-0.6431090749651828
-0.8697849125277757
-0.7162532703554028
-0.01584410180847473
0.9536379095616447
1.7609982518328098
1.9764681284548504
1.6111951523131232
1.1900325569764911
0.7754160982546975
0.38163568251351676
0.11695756861061388
-0.008367527466055687
-0.13613468146030056
-0.3412836705388444
-0.5582756657631093
-0.8121915636389324
-0.916377946092557
-0.4740852240330953
0.4962876789634365
1.3685110651280714
1.8463877777237974
1.780746244960604
1.3423510396475522
0.8733644845805022
0.4246654970830652
0.1374751510928247
-0.02112829929518864
-0.11583422602440598
-0.29524864649271865
-0.5314491389510276
-0.7978170256548144
-1.0091538186961115
-1.1675332650939774
-0.9311777875471065
-0.1100331634800199
0.8745976818476238
1.3776644942521608
1.3408432162352646
0.9600269714083993
0.45889446915092835
0.00042008072485516523
-0.26829863684949756
-0.4631260756786204
-0.5983062238811389
-0.7919596368466614
-0.9549663077839814
-1.2214297915489984
-1.3772454862245507
-1.5078097720991737
-1.5914409903652458
-1.4947862336646474
-0.8674447808633939
0.04158432687318292
0.717646970174617
0.9631757249304292
0.6505525478942145
0.13569065267072816
-0.3326090977285811
-0.5480389722727751
-0.6657093840141902
-0.6917269464454022
-0.7944916877902948
-0.9414228372816227
-1.1291259136135663
-1.3017393592223996
-1.4183274052609685
-1.4856331639681588
-1.3063687191774602
-0.4994923910584207
0.19066127799252564
0.8579480816670895
0.9165034035240875
0.620386668654618
0.19898409038172957
-0.08584007266890924
-0.3133387519262963
-0.4270491254286822
-0.5108106569991017
-0.626280701419723
-0.7786969747456594
-0.9569346245291424
-1.1340664945894885
-1.2831360632628594
-1.2608596309420053
-0.7009019809350236
0.1730943140104267
1.0307125805532538
1.3178984943172607
1.0544385422865903
0.6528753772442859
0.2773294510266374
-0.027413757556016268
-0.22494708282264397
-0.3874356417136635
-0.4780226990129605
-0.6313814358313915
-0.8314957745445328
-1.0517107559973025
-1.2315977024043891
-1.3437321897833365
-1.2408754455044149
-0.5811863244764037
0.31778177807746716
1.0536583902881929
1.198446780788133
0.8955122983250471
0.5131097017158793
0.14072921604164612
-0.14173276817321448
-0.33108446894379534
-0.4662618105429286
-0.5896561437679834
-0.7243922056386257
-0.9054056599125729
-1.089757180336881
-1.2471694113695668
-1.3041966337838007
-1.3464762797949335
-0.8650496950682597
0.02334924751462855
1.0625635326070606
1.3028220409314342
1.0654198858108745
0.6286725746884122
0.20408188307264158
-0.13281533556408878
-0.37498944740620055
-0.5362371577137023
-0.6779335225763108
-0.8460943602479144
-1.0333961065873671
-1.2257894565404999
-1.3989605457137555
-1.55095983280089
-1.5843653366063795
-1.3319926933386819
-0.6363177198119618
0.3131444752899012
0.9408264702415967
0.8807511682763383
0.5000543173828358
0.11276285491182889
-0.2129455477407881
-0.41545267468925906
-0.48087517297289994
-0.516757145386553
-0.6129565329364618
-0.7910281118758933
-0.9603115046490248
-1.093108946750502
-1.2098828212207682
-1.152309112913267
-0.5938629913929645
0.2986100129653858
1.0544691253305718
1.2828820015345619
1.0570849073265054
0.6709083734726807
0.3139845457876277
0.0654070811898274
-0.06531989479658852
-0.15342680635292372
-0.2663159231702812
-0.4472732834247068
-0.6889610492898353
-0.8991652568079662
-1.0283496927459672
-0.8625561203514369
-0.21600032390708468
0.7483837481122593
1.5035835287571162
1.6502788459978044
1.3698198687149317
1.0012687158712037
0.6592198557360182
0.2685920871997237
0.06944600150569334
-0.04611974641676652
-0.2009600087231691
-0.40480119379870017
-0.6155618546871684
-0.8470641457793874
-1.0703457065501576
-1.0867522863616392
-0.4969105847347838
0.408599181195821
1.2390675920475327
1.6714764787172873
1.4661728015643636
1.055157056260998
0.6607621624512903
0.338066395068223
0.11461461487083077
0.0034913177710183428
-0.05008529854479228
-0.23786749773097285
-0.42974722525077025
-0.6619841157798502
-0.8366594504948565
-0.8622233267365239
-0.5647937730736188
0.2715266783531425
1.3578657420483582
1.843134025726234
1.6988283460110525
1.2273941429603423
0.7223875118136189
0.25301302780384644
-0.08413144659492412
-0.2697555214376324
-0.4042482299145016
-0.5824858776010143
-0.7962164923110906
-1.0100857609697769
-1.1934110090614707
-1.3034285207583405
-1.3810685097870654
-1.08820152561837
-0.464111864844843
0.6337891953069517
1.2914968673017106
1.3490415512007157
0.9592611814269351
0.43285490465575716
0.04862838956435867
-0.21342544703845978
-0.37562148807760937
-0.4356795449012945
-0.5400804688840776
-0.6800704853998297
-0.876572162797599
-1.0241438411982575
-1.1475565136026507
-1.2340605409098024
-1.0518367536533162
-0.2793883662699367
0.5896031878624007
1.27927489109587
1.3049514704190872
0.9557681312189907
0.5220548634996429
0.1452923858017618
0.0019628650954362156
-0.065743409
-0.08503199836561935
-0.17352842590874148
-0.35182060054942493
-0.5576731644089615
-0.7481237390022277
-0.8912545550166675
-0.7570617588150932
-0.16083675825149413
0.849612944500562
1.6751047440200522
1.8625475962133555
1.5502138280200892
1.0445590412466939
0.6326297230156351
0.3133852634927106
0.0912021170113945
-0.0008831931142526638
-0.07146495236647732
-0.24492480295177507
-0.45139531316178894
-0.6932009122998595
-0.853224378458567
-0.877991905690343
-0.4533493433116622
0.4025841093652348
1.2933094519138622
1.8292081207330741
1.6643130950388483
1.2771637072646236
0.7522405696491018
0.27591022688587197
-0.013668744504573026
-0.12577064810435373
-0.2092523559256186
-0.33998480106690004
-0.5385263705464591
-0.7718886370251357
-0.9971231788668482
-1.1809803608634983
-1.0345313030071
-0.3416087357026243
0.5339427053892094
1.1707976520813215
1.29122639919921
0.970920854352751
0.5413018093776344
0.06459868845393835
-0.30860585079854463
-0.46076684470123913
-0.5857729476135635
-0.7218310931771783
-0.8876509489686878
-1.1014683892680157
-1.3057880991108795
-1.4350905682653097
-1.3881833147087104
-0.8834312622296017
0.001028634151955088
0.8022896769883465
1.1047850571742956
0.8941339039559499
0.518375893087575
0.05594540516206538
-0.2782821278780558
-0.42705943748919956
-0.5193217538133098
-0.5664818254716409
-0.6517560878894839
-0.8141237558762168
-0.9666193223043102
-1.107444232123282
-1.0144596574669176
-0.3988978343177343
0.39690356442915203
1.0633449534360053
1.1245526132204895
0.7736414244146408
0.39167745001488286
0.02682554295218087
-0.16329912569981925
-0.28857755022925297
-0.3274858431626234
-0.4311948009893478
-0.5520955242366595
-0.7410805326425797
-0.8993174103884001
-0.8700321491665588
-0.4403268462691473
0.3201255989328123
1.17502712260651
1.5437301474700957
1.3355338856709356
0.818340147834283
0.5119795973430061
0.19112104666775487
0.05968467781880754
0.016184102373023354
-0.032203183000303094
-0.18892948794503142
-0.5114636046849331
-0.6770129540906622
-0.7417599620687026
-0.25779834101516746
0.5395654487376701
1.468449209665018
1.7265637247410481
1.5070026509610706
1.05822569306897
0.6093308984306666
0.25154925922592275
0.017345134442926742
-0.016321976786749726
-0.13320736602989688
-0.3217481499042907
-0.501915424363277
-0.7231586066032313
-0.8082597186737751
-0.5471343131031441
0.36850931798190995
1.2318243998216467
1.7467333216113865
1.626307674124732
1.2223023326511153
0.8173685404765948
0.410455189331953
0.12057741126683799
-0.010273279253560565
-0.14175691807758015
-0.3285841795085525
-0.5167405156657396
-0.7623195689813473
-0.972755846455228
-1.069609009202795
-0.8279212168633241
0.010306150018140309
0.9237923925538492
1.4019419416715193
1.2563463431540371
0.814840292153061
0.37686119828725095
0.0335735592459436
-0.2012048447533653
-0.3723187843138914
-0.448859426761346
-0.5641235278509719
-0.7958661224888769
-1.0236579317996648
-1.1957186805643985
-1.3467158633219807
-1.2658043476464875
-0.719298686265909
0.10189818251734273
0.803794033802641
1.069963577568665
0.8421993641181406
0.36666489765716326
-0.058828603487217725
-0.30081076537327844
-0.42045891630444987
-0.4715699704116062
-0.581579445403645
-0.736318339133477
-0.9199021386507973
-1.0703021089449054
-1.1789683610391999
-1.2104384002124102
-0.8577026286537837
-0.1398050406258361
0.6024216438149119
1.0691386891292285
0.936707817038277
0.5515820569612864
0.14992060263307433
-0.10810238864157834
-0.26103792676100046
-0.3295292334546423
-0.40358678614917654
-0.5534803803916573
-0.7231647056386458
-0.9019974927792201
-1.0127458198450625
-0.8768792335348244
-0.3066881269353845
0.6508324596226531
1.4062092331290144
1.5320310983210834
1.266974821087486
0.8586528430369651
0.45903610999764577
0.1438777054910258
-0.015052570144674215
-0.08960465685972419
-0.17964436655318372
-0.32826547070019707
-0.5131303956652575
-0.6978773856493024
-0.8253598539146269
-0.5533968953267085
0.15915666764626568
1.0185231189664334
1.5339513102102285
1.5750970665426034
1.1147688771450421
0.6877356203204323
0.2793266620245367
0.014812888266649754
-0.12436156356092165
-0.2486110688909065
-0.38571739767606916
-0.5668075815957452
-0.7580061937088876
-0.9441840067427498
-1.0255617461214033
-0.7167352060755765
0.028827998373498587
0.8553882565771033
1.5376604545614956
1.4282594963115045
1.0140570635480508
0.4936905756124736
0.10688724084495199
-0.16989524729790684
-0.3429804304878688
-0.43171753565528115
-0.5795243654441047
-0.7634854984340389
-0.9705137705107717
-1.162324307209359
-1.312081089084361
-1.0611343756247893
-0.2902150525699345
0.5152040124463743
1.3169852190528788
1.2434645847243766
0.809347758776171
0.29800021165097684
-0.06884541987703091
-0.4120120535765403
-0.5583528948616419
-0.6834915578920006
-0.8206122354568787
-0.984979092493354
-1.1899872578961344
-1.3459727006248516
-1.4568841818442375
-1.3547086135562192
-0.8933005460935178
-0.04200632774751313
0.788520251120184
0.9528076894169615
0.7691971252037152
0.380410753373588
-0.053362561677752336
-0.3259218757298796
-0.4650881585697313
-0.5692924716870124
-0.6475457883122369
-0.798307413083733
-0.9585706090142451
-1.1876907782716093
-1.3013654779813155
-1.2325816015391966
-0.6680295714929422
0.17128301911692834
1.024055898873738
1.1061872110464366
0.8687900048441134
0.38977172292008433
0.13519909977507
-0.09795800489888552
-0.18368894141790892
-0.25137640564750197
-0.34943901065962774
-0.5242091354224975
-0.6607203100516919
-0.7716448806937563
-0.8562230020904265
-0.5930004806372899
0.03875385366393973
1.1758848910934936
1.7044129861386523
1.595878461731796
1.1475458248764618
0.6400547614022275
0.2494848996569058
-0.05657502851857949
-0.14514806234694694
-0.22873318996579545
-0.3451455334699551
-0.5045617004467114
-0.7090055548248574
-0.9173690817590439
-0.9890395512457101
-0.6959973397895665
0.2203545641206052
1.168372132952984
1.6040917479290555
1.484662070314191
1.0197673417068416
0.5698187114313336
0.008593722858854035
-0.16039124404191596
-0.3259912812149811
-0.4353771309134411
-0.578018849183552
-0.7358904607855491
-0.9326377112098093
-1.089870101678081
-1.1922489594180947
-0.7957786030789247
0.061600300660246854
1.003147279565536
1.4772110550332835
1.3035807845737608
0.8655326429762948
0.32205210419284397
-0.0974986111792083
-0.39418219746983196
-0.5832800745537662
-0.6794387825008359
-0.823114586495931
-0.9823063486282443
-1.1898534435940509
-1.3636475223800815
-1.4699032882092422
-1.1585541853910901
-0.3519439995170299
0.5049844029511154
0.989190632827168
0.9762004484895295
0.6063679804498753
0.17224105600401962
-0.2938814918139312
-0.5824567309254687
-0.7432333514768784
-0.7828788378750594
-0.8729657133380977
-1.0013302142714642
-1.1573977761937486
-1.3192959886770914
-1.4303477141213141
-1.2725854569795343
-0.6255332789618305
0.25313817938090477
0.855145605146209
0.9163166934912833
0.6068794639875006
0.15845534146724988
-0.22428608606413447
-0.4894894140009836
-0.54715298
-0.5831947668554963
-0.6464262551649743
-0.7871827317658541
-0.9482735873853636
-1.0953550610937062
-1.1278480414332481
-0.7880879321909293
-0.07730313219252849
0.7813337827941871
1.3048176290143805
1.2733219165636285
0.9104867956385327
0.43873190814561613
0.1288074899139453
-0.034804238490292946
-0.07464169434526442
-0.12670165025489738
-0.2260409292268885
-0.35964925181006613
-0.5181405955567013
-0.6433874808225787
-0.3908842736548597
0.28187584956310463
1.4460441716109558
1.9893205714364366
1.9673405059569298
1.5911092321668934
1.0393299077288989
0.5110738144219705
0.18589878724906933
-0.03535885770072513
-0.13140446444432455
-0.2959128652942352
-0.5765683672767401
-0.762040168517082
-0.9160480510715232
-0.9220343126865124
-0.3833605311467704
0.6657498755522848
1.58568767636688
1.8396338241237211
1.536911275302285
1.0359939303842127
0.4102216390228524
0.1146079827201843
-0.13129786553031444
-0.2341508824203969
-0.36450245370046547
-0.5198385348420584
-0.7218412045758011
-0.9550007167992876
-1.0993240906665627
-1.0268295060767858
-0.3565371186381034
0.556907211071997
1.5177885977106726
1.699351291239701
1.3837045220606434
0.8330795312673667
0.29713213520179477
-0.02475416805744932
-0.2432001425555169
-0.32533147110310096
-0.45757377922190645
-0.6053806090107431
-0.8481072338356943
-1.029914723628363
-1.254503920259608
-1.201059307760358
-0.6507664894035725
0.22933803686224596
1.119367269068146
1.2678747794701752
0.9137812485518317
0.42070960065877117
0.0031104140758513345
-0.33352697603209935
-0.4566993328248644
-0.5728844949377074
-0.6623418281450062
-0.8212702273416659
-0.9763089681944563
-1.1695623577079528
-1.2847618428743692
-1.0326583003388137
-0.4480147589488235
0.4187206904381454
1.056732662081561
1.1135758003399043
0.7910416571614942
0.3690368137275696
0.008317768035182083
-0.21593166399172914
-0.3127200231586957
-0.3665072594612265
-0.4474648082188989
-0.5596724828990429
-0.7932911485171644
-0.9597797681683655
-0.7229405341902108
-0.1598330956773601
0.8478709737791852
1.5485113507458008
1.759584706561531
1.4815368058630458
1.0747765860467804
0.6403449459248279
0.3284761821332296
0.18813880607845826
0.10946353618333188
0.017781153835217348
-0.138121701937666
-0.39017880238390446
-0.5930394840618783
-0.4580666716582053
0.2244826418842259
1.2587654463107594
2.038447414552802
2.224493927823627
1.925668656922482
1.4724093850011246
0.966245401394024
0.6135102645388222
0.4392127473260481
0.34007282357772933
0.22261338607482434
0.030556422079544128
-0.20760965318505817
-0.37002132992534287
-0.18095084573892276
0.49792984953716773
1.5100627653470722
2.381597555067969
2.497027593166516
2.173701665970579
1.6747331628199857
1.1777584142287285
0.7838924671643919
0.5113331510341534
0.3758651845342258
0.2183044718992525
0.023623301107187036
-0.1987141541830078
-0.4552575393393773
-0.46693811
0.032724469162707215
0.9117651026431861
1.8233274110347097
2.298665453845048
1.9872531929108468
1.363157424930313
0.8982146213874848
0.4210179923100596
0.19068359455938344
0.06544194181027205
-0.05888606508251179
-0.244292749314379
-0.5117168327984467
-0.7634197244663813
-0.9374227752394632
-0.7094989904133536
0.052706923434577835
0.9956703442879592
1.4439419994057396
1.4483656482005942
1.0740841767049867
0.4815375467767218
0.019271300130881575
-0.19697704180088288
-0.3017017856125767
-0.3640472012671676
-0.4966341404458075
-0.6843061971762353
-0.9050519613014686
-1.0694159339242693
-1.1481790169922166
-0.7607091172904038
0.07455071225783128
0.9450341476094732
1.2165304791095035
1.019987350540245
0.5433859382786805
-0.03996675631739989
-0.3238623927229648
-0.4676470508716212
-0.48962930221168866
-0.5162085931893835
-0.6491096984758942
-0.8055859090084754
-0.9523227139756365
-1.0244287300143675
-0.6036202588543071
0.2001799506458997
1.2488985559380277
1.583927339559522
1.40402187954229
0.9800769122143212
0.4665901895564257
0.019497598772656714
-0.18580608984267122
-0.26465585741796005
-0.3423761790272398
-0.5046557415749187
-0.6524625713637262
-0.8572205526719114
-0.9660558300226246
-0.5674257232297623
0.4826352879397289
1.3612483653007375
1.761674644875607
1.5571330929323377
1.1826891197673866
0.5191271347691266
0.09679171540345335
-0.278885094481814
-0.39892509748040117
-0.4660287623969144
-0.6137070038540254
-0.7475925598180142
-1.0044786695853543
-1.137040198877917
-0.9251714777881925
-0.2909728207996263
0.8778234931337763
1.4894299739211028
1.637988450477451
1.2579483625601793
0.7059123289538209
0.20188286798506158
-0.17256763878028641
-0.32702114753744405
-0.4175947514094082
-0.5413267379254295
-0.6919476203604455
-0.8972513057008391
-1.120692044891051
-1.2233165649889102
-0.9533679812810968
-0.22973131105527128
0.7892285217160657
1.4371501658963348
1.3942928094299192
0.9270895008410689
0.13594354717988433
-0.13943517919308826
-0.4924936641196894
-0.6392520598604833
-0.7289572310174639
-0.863528239381975
-1.0445206582160416
-1.2628104195004153
-1.4516169121361842
-1.6075040645689282
-1.5085200848410214
-0.9140880496320285
0.02707673605478006
0.813897971541125
0.9938528545571752
0.6928031709623383
0.2227688707244332
-0.21827641208662824
-0.46673969137912397
-0.5345508673988256
-0.5610445485187344
-0.6157833437577259
-0.8051597994487013
-0.9985145867119276
-1.169750441493099
-1.3212790039496427
-1.303736954728152
-0.9027610403277352
-0.14189121292323958
0.6784813192495283
1.1063947032004615
0.9847871012474643
0.5830580961252512
0.14602299563547105
-0.14638652979989825
-0.2760771712680574
-0.3064482
-0.3408060213155468
-0.42537937337591514
-0.6010060491477858
-0.7847610806638705
-0.956674849147823
-0.8720860596974067
-0.36511402256693154
0.5424205355819628
1.4931539391943895
1.8226157162967003
1.5841717021929167
1.0850392134345885
0.5758323421540428
0.23910539808105108
0.08179388699463916
0.054608984
0.022195300820818123
-0.09712195013372815
-0.2726177806416412
-0.47955314477336886
-0.6748224395495037
-0.6037709161863601
0.060891057750250055
0.7850913786905783
0.795848670639624
0.6636943274018028
0.5315399841639816
0.3993856409261318
0.26723129768831066
0.1350769544504895
0.0029226112126682358
-0.12923173202518146
-0.26138607526303126
-0.41034953255058465
-0.6813281717447915
-0.8537694663421943
-0.9930848915051507
-0.8557730121102481
-0.17162922678141157
0.8100846187878391
1.647658306243526
1.9796292890959848
1.7111506174817814
1.1044528630397328
0.5555124851841737
0.17039319453466242
-0.028161731996809974
-0.1012987778130836
-0.18945851616704198
-0.4219510284071768
-0.6325943104308682
-0.8052474663958852
-1.0337747528049703
-1.0069338555619278
-0.3873290376006836
0.8923105991734154
1.6207597463835386
2.152098294894148
1.8660005559609065
1.2578373534925567
0.6191714586157404
0.14843195995834876
-0.05380911725049485
-0.1429155822615872
-0.24470701751706353
-0.4194827625338339
-0.6706493671922602
-0.8710167786277514
-1.0560454100990355
-1.18744566826381
-0.9288469579906065
-0.13925701084698727
1.2296015679500694
1.9616354679750305
2.0177633347903408
1.517721033036093
1.0831804263134055
0.3807005866959742
0.03240275995224406
-0.1069993923840817
-0.14788271642940445
-0.2674522835632076
-0.42231714209744675
-0.6197111404678668
-0.8365290697901375
-0.9683163885535901
-0.9033625365934151
-0.44923231735551516
0.72598889084058
1.5784868368093443
1.867598632134137
1.5090642166727313
0.8515865606040534
0.2381848594459141
-0.1333422895988155
-0.28669985657578917
-0.2989713742608462
-0.32566111920409774
-0.4647300866208095
-0.617150687715498
-0.7758993588898762
-0.9163934706254325
-0.8009248358325209
-0.12364277827598141
0.8921712756154465
1.655347651346791
1.822206263215886
1.4308291974678133
0.7723454188499483
0.22030220424333852
-0.08701571528472181
-0.17403849307733374
-0.20418978306141594
-0.2810571159774
-0.41674201286338053
-0.6046737960133293
-0.7828180776885068
-0.8424954841030723
-0.38558468751114233
0.5382883462143845
1.3146050182926774
1.618541003006495
1.3132800736943437
0.7748722360211253
0.3482348242664258
-0.05893120942141115
-0.23012597708374855
-0.2948774247707411
-0.3658727203184712
-0.5333215826145206
-0.7643142044691844
-0.94605687529833
-0.8121409046075069
-0.21075239134865192
0.7540709215338826
1.4393353433563196
1.5968239074837396
1.3664523759798617
0.8834333901613346
0.4578095668043298
0.24849408853677538
0.16341477369014523
0.10144778143668504
0.013113401037700506
-0.17271327426922517
-0.4001152235943628
-0.4017516691702502
0.038588865212195345
0.9037948456302592
1.8224925826149565
2.166746851719792
1.8923440542590728
1.4170146707064304
0.982286378650767
0.6250365372509274
0.5048684282324891
0.4118972257239906
0.2628850512561104
0.05490505254262179
-0.17053763615644893
-0.16694872473839073
0.365622225391935
1.4974658661039033
2.23828796314677
2.4822804864482686
2.2993884024570614
1.8351322973006712
1.3381575918475757
0.994382722381655
0.6965235118823897
0.6061940288470431
0.45838719905823555
0.2446115395691451
0.04796889019000157
-0.03994640272171151
0.4532043772084154
1.37999373317162
2.3277694233228465
2.8653656818193465
2.7595547869206625
2.246411229046585
1.5571323019463645
1.3190154651705024
0.978681299196462
0.8663307527243146
0.7142286764906519
0.41502180592212723
0.21460630356607222
-0.09745876935768753
-0.09993963396767909
0.4966821184571511
1.5874965251756268
2.5844277100633346
2.6950777384627536
2.3314326861640793
1.821405655988211
1.25364636051213
0.7940071264183315
0.4958965119521638
0.38095206471885545
0.2019711043331897
-0.10190330587040658
-0.307206988754566
-0.6810634306553933
-0.7994706745973964
-0.510067995167879
0.2940526153009596
1.260779653536409
1.9122050908229715
1.7959574191584426
1.157686355230397
0.7471282647941333
0.3287537206805858
0.08945664286002492
-0.023325278407947035
-0.1488456127004153
-0.35896729188545007
-0.575663895166191
-0.8195812406093717
-1.0621675435174063
-1.2263808794306692
-0.9788671613158317
-0.2464432618418646
0.6421030688198626
1.3161889130736077
1.4085343729180504
0.9651138917390752
0.476356552405968
-0.026287681538060003
-0.11124616441784115
-0.1860958
-0.2577942714126036
-0.34023059718361537
-0.58831635789767
-0.8409855655279699
-1.045606467630949
-1.156316095121106
-1.0128721815662427
-0.38097916678286536
0.5451130699020704
1.3977186414334932
1.6271742950524768
1.3271614775066807
0.773369947136795
0.3151644356788734
-0.05451302996739016
-0.3207081404843785
-0.5474175462524552
-0.826150273864244
-1.1344110527028126
-1.3827016375060812
-1.5978664535784248
-1.7907193034523068
-1.9166324460601711
-1.7200837645918272
-0.925246997976762
0.13748046037379552
0.9450758507087265
1.2202043250661903
0.8791019507265186
0.4460672302802527
-0.021399833413014616
-0.38333985191406417
-0.5398497693164794
-0.6728069823273305
-0.8151095403573659
-1.0123962614706936
-1.2612158731960315
-1.444327056809905
-1.5766991412736493
-1.6991250070722015
-1.7850716221284282
-1.677440320490115
-1.1114600291064587
-0.04285823041070802
0.8984305210185699
1.4816060031400673
1.4333733637981707
1.032794608224908
0.5826750439982913
0.15438768295192828
-0.17535529496373908
-0.36972561271413357
-0.5037122432484864
-0.6859444108407592
-0.8928648987850214
-1.132104890443805
-1.330456961090897
-1.5129472989350683
-1.6305681862325947
-1.727314732469463
-1.8427881260355614
-1.8710293
-1.7082010089671422
-0.9927909299591795
0.041118529865259434
1.10163728559329
1.4442035371107806
1.1066138666192287
0.5493710939040746
0.068842035423892
-0.36128036018097787
-0.5461151254205769
-0.6517817020650919
-0.750269308716436
-0.917431730567072
-1.0951254715941545
-1.2955809640441156
-1.5103510238680287
-1.6466071029292613
-1.774771134048321
-1.8534085927383719
-1.9242063872923665
-1.9565394132047516
-1.6230425690774872
-0.7695999643838798
0.1886780581548652
0.9148089938955554
1.1637312160024116
0.7995879280530256
0.16787120327524863
-0.2091897084113787
-0.5106166849356741
-0.5889773021798318
-0.6516443422866829
-0.7578522885579915
-0.9140943018406551
-1.1310466310973917
-1.294832586692701
-1.4268002142973262
-1.5152589125563853
-1.6050378621594437
-1.6198518002220308
-1.2648780410040827
-0.4544141073845561
0.6626909132287118
1.3721132672578134
1.4154745118587826
1.0155473073652863
0.5214888734256401
0.11619351189811274
-0.08871400525974342
-0.1943470781524321
-0.2560976727254748
-0.36179932868814907
-0.5294516756481968
-0.717646868131315
-0.9372119208305986
-1.0909293822758153
-1.2286784007957565
-1.27611969811452
-0.9865132277445645
-0.14115933075248954
1.0596822385393945
1.8904706484637
1.941853846932644
1.504803437089176
0.9606817901226041
0.5078203794460381
0.18941469614579615
0.057541141090237446
-0.024944795750763138
-0.12348268560619664
-0.36168333517511664
-0.602526830603826
-0.8242370711933923
-1.0014027098202214
-1.1386849483985944
-1.2090911
-1.0881620399445917
-0.2998589859454258
1.0821240959913057
2.036549922075558
2.08947985832389
1.6127822090570054
1.1862429340838243
0.5268432285657225
0.1661141366070736
-0.0025865277959520074
-0.08242309010882849
-0.22083188292795347
-0.4015061588209943
-0.629182063849461
-0.8821547097999214
-1.052905761353133
-1.243474868683144
-1.3769151543037965
-1.3521779980922934
-0.8559362698549018
0.10424184785739415
1.3315261549276358
1.7552128003209013
1.6346414466474755
1.0755086438983554
0.538999772762139
0.10892678725187399
-0.1430386202012645
-0.26008544210706336
-0.30278411711610126
-0.399381279756024
-0.5836485113872945
-0.8451020464458465
-1.0604994645719987
-1.2220227049112928
-1.3665354155288887
-1.4580872306029429
-1.3397928659651288
-0.7189147787291619
0.2795319290493648
1.3017770937171393
1.6987045210722438
1.4031754076695315
0.9250136659399245
0.37222865232829805
0.037970795513155894
-0.0861141765635038
-0.14161854441957317
-0.2136519549635755
-0.3889658746497265
-0.6086994987909838
-0.7725264106829772
-0.947481786544714
-1.1685156077779082
-1.2216764637187782
-0.7919242096710907
0.15844395337558015
1.3477458724599714
2.112044190160263
2.1561421107289984
1.7421791650042107
1.1479941567852714
0.6360794708968702
0.3811516943033346
0.2570395915758902
0.21625411012641843
0.0918336433844111
-0.06880371536078514
-0.2946598114377253
-0.5633005631069684
-0.7546992836002457
-0.8786511924128381
-0.718431785947059
-0.013931650124442196
1.2374353379622514
2.151882963041999
2.552673214692201
2.267752193173693
1.5830525210882587
1.0700680178348976
0.5506737834503768
0.32079606962057394
0.1798986204527527
0.06362016843670609
-0.14731517879283293
-0.40359661063745955
-0.7094510964257509
-0.9445924845414277
-1.161091877093203
-1.3091065047904318
-1.1118215595331622
-0.2649408038764487
0.9967429622367108
1.9464240604572642
2.177060438215471
1.874293491628574
1.3119050546494486
0.7118155740832645
0.27201395097576114
0.025216754603436836
-0.024655427027715178
-0.2096505467143304
-0.3916137522292758
-0.612392118467053
-0.848526609331581
-1.0319548286095543
-1.1683960649904626
-1.3263666328609014
-1.263354642324286
-0.5854965735020338
0.5217054242785663
1.5846242325956168
2.113868526771421
1.7739723328773331
1.1581018971652675
0.4978320367052764
0.05471540051623478
-0.13495047200138596
-0.24323453852824903
-0.32726393011753
-0.5188780273071399
-0.7648562453714992
-1.0119181048158992
-1.2370327080959993
-1.4669709401194155
-1.6198119107729634
-1.5391539039601343
-1.010099317571604
0.06535388106813422
1.306482670838892
1.6020963467914013
1.2252036223848635
0.6878330566003436
0.16395638465130635
-0.21923180513783297
-0.3384133805303625
-0.37284023390806914
-0.40152031930337817
-0.5697060178503877
-0.7782492757648716
-1.0383377428259746
-1.1964646579776685
-1.3488881894523623
-1.3395655151225898
-0.879391071719034
-0.03890211467746946
1.0205514556797104
1.567374476940416
1.5313579078115906
1.0876093876913644
0.5170451632419614
0.17647499479455397
0.06934929914451515
0.054608984
0.04214235999463726
-0.0535417806626856
-0.25861323561207983
-0.49393255317003604
-0.7142391579406375
-0.8320835690158837
-0.5189997521009471
0.22304946609127746
1.2379987889316963
2.2634354868668356
2.3540546928842225
1.8990164647945373
1.2695190845934028
0.7863375353958453
0.5162207354183164
0.3911799902393831
0.29446669123265345
0.13209388763285945
-0.05951837760413404
-0.27823338858559155
-0.5255286534739203
-0.7077206716919602
-0.3957023351523085
0.5485293639736349
1.6967177767580788
2.612934141907262
2.78148343868728
2.3866835018820356
1.8262300483750868
1.230876420449631
0.8584338017043489
0.6733547966558112
0.5135908236053989
0.3033591570610723
0.033686106706869695
-0.2505955410725668
-0.5058205578124251
-0.7648399969769497
-0.7291838029001312
-0.026350879195217725
1.1135465688711397
2.0422568886344896
2.65948998282844
2.412872394650587
1.8538125950756479
1.2554271862722002
0.8311785325213044
0.5409435932345302
0.3566857708970013
0.20511682456358887
-0.018583255005717086
-0.3120913027005525
-0.6044704432407927
-0.8878698050127893
-1.1240202301600897
-0.9725795317267307
-0.19969590416845584
0.9131478253331619
1.9897831399909607
2.2604384582236294
1.82273446839802
1.2743261504067471
0.728260713740206
0.20925611431225716
0.05235204482270424
-0.03981681892023711
-0.14491892789195754
-0.3483132456354978
-0.5992910099183428
-0.9061378508631753
-1.1039353423826834
-1.3666154630506224
-1.4665098699392591
-0.9820122210703053
0.09881695366107635
1.2419813462425633
1.759178700972631
1.5623492369394747
0.916637106275907
0.36658414185316957
-0.05595148956312612
-0.22109546374504552
-0.24448240186692594
-0.31823185627222783
-0.5029710112077255
-0.7915462567132132
-1.045542453098398
-1.3156516317950817
-1.474938089484002
-1.4661429686728615
-0.9714738582434597
-0.11034468006647194
1.0613658935483168
1.6861282883080357
1.5739045779927088
0.9892919262607047
0.4515991553166272
0.10608094980521096
-0.03859534707362943
-0.0700947663151508
-0.15010283697327345
-0.30957862700856575
-0.6439284610242859
-0.9411059816804306
-1.1497636359617804
-1.2966938175156602
-1.127100784176232
-0.2589575665850921
0.9520962814255227
1.9357072620483267
2.139976880796452
1.75160512942712
1.1620297392248222
0.613589443221575
0.27479366149101697
0.031812743260344535
-0.056925948844928784
-0.1869660291464374
-0.40643241217100984
-0.6913894775343613
-0.9301841302076037
-1.1543397081201685
-1.3284675625838862
-1.1061281176190294
-0.2997249250785139
1.0695018567803825
2.0359160993446506
2.2102954554316003
1.9476864619813794
1.5134896122895842
0.9163231080125208
0.45915907357476865
0.21156791617905535
0.07202289762912777
-0.06445191293921129
-0.25297535468139465
-0.41897429877553694
-0.688327613905644
-1.0080696327065852
-1.1665038662788991
-1.2059189739478924
-0.5672724711899602
0.6007835751472461
1.6628262933918796
2.1579248266739683
1.9863090607535405
1.3648256449680534
0.7343925264632657
0.4059164843300351
0.14675859860519933
0.06879965387273135
-0.057353008125842785
-0.22674882051606224
-0.5288718738822182
-0.7772763638575627
-1.051537609302434
-1.2697398064755063
-1.4755543537368578
-1.3459100773491424
-0.39055245153071805
0.8729221255820878
1.6915692519503889
1.755618336960375
1.3155252651172564
0.7203553652467156
0.2784581067150843
-0.0506976579959262
-0.17354230235081017
-0.22780790066722276
-0.3430919382646434
-0.5634918114958508
-0.853356051793718
-1.1343677297320496
-1.3637330969853882
-1.5534516670954681
-1.6233232672942974
-1.2883213441977892
-0.3242499441700821
0.8308570044097694
1.5002271664158462
1.5551835665447529
1.1038146351225284
0.5430705384342902
0.10930709788830079
-0.13920460379855384
-0.1860958
-0.25021850884746005
-0.39783894415607557
-0.6145398957110365
-0.8210665023934546
-1.0250639171952998
-1.1892998141398512
-1.2758187819116893
-0.8928582620810075
0.10075808259256958
1.1837347441105561
1.970859855117223
1.9910318649435985
1.5001791180709847
0.841997384177961
0.366662841029549
0.12213661729724337
0.05871038071587775
0.013592864245274845
-0.10203139588087815
-0.3644631580103058
-0.6278452387074498
-0.882277079802642
-1.0994237131983386
-1.1689406502823327
-0.6201392438543237
0.37197599063966585
1.5509785781670402
2.0720243994826513
1.9504133189425883
1.483750926862169
0.8984576296349018
0.339196748781724
0.08668656372542602
-0.016850060219819094
-0.11247596078663519
-0.33114723744216623
-0.5346252186057321
-0.8897396596541456
-1.1491997229110393
-1.3223448759689753
-1.2838621566848942
-0.5631376468773558
0.5654553952829153
1.738155571094469
2.202399569683928
1.9495018769714483
1.322206565147271
0.774057017645368
0.2593275216073983
-0.006694471751077975
-0.12902619574599766
-0.24878899496168128
-0.4400608133382914
-0.6665557536167073
-0.9392970836748954
-1.1578111948357812
-1.3090617788144163
-1.2092752907295565
-0.6092112362253874
0.3252405789347905
1.5430834115351997
1.956197611655935
1.5555748456636678
0.9747677367995845
0.3620374136913966
-0.0533285808416553
-0.24055056578664127
-0.3205572007826351
-0.4328006191861353
-0.5860286903887281
-0.8351545362015989
-1.1064318367601182
-1.3454280231500035
-1.4566911527193374
-1.316395463205045
-0.15262313046482578
0.7892383546628534
1.5590138999999998
1.5340654013106825
1.0421816569367741
0.48035268471398584
-0.04385135841325144
-0.2235743402889005
-0.2508096768390092
-0.3189037581006009
-0.4231835379520206
-0.6739329476126839
-0.8729416934583865
-1.0731903265159297
-1.186370281059909
-1.022554108225574
-0.2823249624011226
0.7151061041908409
1.5834128435825423
1.758976642815668
1.4294180602401498
0.8014901066361119
0.3486702138738902
0.10800793799706988
0.008730185344348967
-0.04655665199310681
-0.1599008223110747
-0.3630226168709548
-0.5777932952936133
-0.7830969806339705
-0.847402265209103
-0.5557131001795808
0.4543002263413537
1.5235039802119013
2.289286451795724
2.248661436650938
1.804171016474406
1.204574210599798
0.738585476464866
0.45323930734349516
0.30346184728557196
0.1993544216401713
0.03075971320836425
-0.21722119228773337
-0.4529199592394745
-0.6721970276589295
-0.6234235691599895
-0.025759420062076044
1.0029471384563593
1.964437525516239
2.4099257017512574
2.1213504466546977
1.5428527422390261
0.9419224295672715
0.4734975269065753
0.2093533895454623
0.1108155057487222
0.006987689903121111
-0.2073701879821293
-0.47614933586944774
-0.7734612742566483
-0.7813991338079599
-0.27127981657757916
0.46617420418245803
1.6016501535571448
2.09948221345466
1.78133188226923
1.1933756989758717
0.6041926735394489
0.19742463675135236
0.021058112785371744
-0.029755039742807167
-0.1289299556183179
-0.33529150730845014
-0.5602743273389044
-0.8518981435481664
-0.9499192309120249
-0.4625699667860972
0.5071540259493528
1.5906253296887267
1.9277168355624614
1.7027460762062776
1.0972547891951538
0.4326251626239292
0.07858735551682311
-0.14995526125192332
-0.20845949893302906
-0.310514921951344
-0.47649343088358137
-0.7063845530376537
-1.001998228990163
-1.2742469941287917
-1.0671815088418266
-0.23909607011846767
0.9498218999498622
1.6743015399748837
1.6433693103746037
1.09119999536075
0.5200530834847764
-0.01983673514511325
-0.3277244215356039
-0.36227970259471254
-0.36662439
-0.3937824326091648
-0.5532582226444875
-0.8301534662577726
-1.154653606279633
-1.3260538559376227
-1.2191502474304567
-0.49971750376864127
0.46885939053936987
1.4454025437880578
1.5701907655579435
1.1582116626485937
0.49283156488060453
-0.03592933419157729
-0.3294547493246374
-0.4244214607877576
-0.4039209759906547
-0.4825238902929058
-0.6701381300296596
-0.9470365430073628
-1.1946041617918803
-1.3881075597628387
-1.2813562889437697
-0.6695483261782536
0.2683211969380098
1.3880464720525652
1.547512915223271
1.1201319550104136
0.6391732364787083
0.06923873040454144
-0.10333509670465271
-0.14437612658731588
-0.17450476601793943
-0.30816795231815297
-0.46420269166641726
-0.7598667961503007
-0.9405360166820225
-1.136624426500551
-0.9345775457355621
0.09416932311928727
0.9883222075889244
1.846015933957486
1.995083504435999
1.6530813998337082
0.9544300399825641
0.5662904991267224
0.2056343703554909
0.11729101610114749
0.02693177062540429
-0.11295318442635575
-0.34254886931288586
-0.693751003852159
-0.8992974479408069
-0.8718554955923054
-0.3209568314303356
0.7024732550963317
1.8963190982746767
2.3474415007960716
2.173657479471689
1.652003416557784
1.036060783963348
0.4828586937468799
0.2130263982088481
0.07329721529605167
-0.0003615590571774685
-0.2435614601794418
-0.4637826466430198
-0.7401559326387929
-0.9399289194105196
-0.9732791545306425
-0.39706564742957473
0.6273976772202826
1.8061163646073228
2.2398625676272292
2.0940774960508923
1.5928897000613482
0.9962775096358558
0.46494706845647416
0.12978680142681204
-0.024812819879121834
-0.13427079162984726
-0.33452483215846474
-0.610080307805745
-0.8946451074778686
-1.153934662378888
-1.2914122642461616
-1.1532906239283625
-0.31853848161048126
0.8322426185220411
1.7114955612259193
1.8838723436290632
1.4489505166683807
0.8494054809340794
0.26306527924013745
-0.07517449488922354
-0.253046581266466
-0.3946806813680023
-0.5893724930702107
-0.8187565647045387
-1.1231829388405676
-1.4008521363940973
-1.6651470380470599
-1.862971799367712
-1.7658957827940545
-0.9735398525223192
0.16227730722390954
0.9753450595934514
1.060066207626582
0.6117472826632582
0.007150619169108363
-0.5752144888486805
-0.8909053729287955
-0.9565953320289002
-0.978210523242187
-1.0595380324773715
-1.2367778630507142
-1.4340762209917406
-1.6504736629149481
-1.811576632328356
-1.9623900260209588
-1.657424575180905
-0.7959796324939006
0.15790691644570676
0.8361987455768756
0.6251337920836537
0.10401220283612184
-0.5285817580034962
-0.9424475144426492
-1.1346659602592377
-1.1489149
-1.1316645977731667
-1.2215283527986267
-1.3819944071318027
-1.5956734423313612
-1.7720638947761522
-1.9028059046155061
-1.7839882138088026
-1.1315285573373473
0.0614798988641605
0.835380931236912
0.9831708290323676
0.5924502827774336
0.07856613237644072
-0.4177054936825303
-0.6453873698225894
-0.7143638860240611
-0.7470864372799383
-0.8444863942790328
-1.0142440657001577
-1.2125992954109832
-1.4209986658423939
-1.570087418211098
-1.3594091122384624
-0.7108079877157376
0.47662470800896606
1.4375842637559146
1.4211776839444343
1.0089222355356435
0.41946857944125115
-0.21604029990906143
-0.44050374018982463
-0.6572112418686777
-0.7013151557066382
-0.7872877463434602
-0.9638183678793648
-1.2214312134182181
-1.4406746439521732
-1.6412669816616747
-1.60874124729642
-0.9896839802395972
0.1626934130974756
1.148072261380885
1.5066086519957131
1.1453194502396387
0.5005814655974985
0.03676754382492143
