-0.58077536
-0.19421550322395378
0.13811224697557334
0.6707922356936911
0.8753844527336928
0.9147112266745119
0.799894695165147
0.598217160566282
0.40313292436017745
0.19432002788737193
0.04519553088298786
-0.027565470632157446
-0.0989595494828639
-0.1889245727088522
-0.29505699212117825
-0.40002598500427894
-0.48208249060619046
-0.5476886529795698
-0.5847066223058195
-0.6138388843386826
-0.5360165624861438
-0.20662803695004714
0.1573285927870265
0.740433638139892
0.9882297185481622
1.03840784194811
0.968839812025675
0.7485238351751505
0.49723590219445746
0.2814004800942179
0.0877292106109057
0.008579233863230389
-0.053899488769775794
-0.18595214459981932
-0.3281162259241251
-0.440741276744246
-0.5452782513023421
-0.6281081532314766
-0.6654228337538831
-0.7162682550958216
-0.7161111648388147
-0.5164772709165953
-0.110487983105859
0.39147244825804123
0.8719144270879665
0.9820703966019243
0.9303613102434911
0.7778331830948417
0.4718044489501181
0.27526000306514864
0.13499289437743972
0.03748352321786029
-0.04965526225861885
-0.15013931669293146
-0.2619938793916932
-0.3738484420904557
-0.4529009419000379
-0.5160206822602798
-0.5846169295126497
-0.6064552012776463
-0.5947103510158736
-0.3395048508382744
-0.100896699435784
0.5182932186026358
0.9020309586897126
0.9877204568208697
0.9338063292041603
0.8027767068905154
0.6007686469442024
0.38651406760653145
0.20131765327320983
-0.0002762535533560875
-0.026482178934758054
-0.13684956489980551
-0.23716689719296832
-0.3582154407062181
-0.45599628738935066
-0.5350491341773222
-0.5868101093769356
-0.6370941296832834
-0.64399539010639
-0.520162759268175
-0.19957110511808276
0.29845514132638357
0.6820982136022654
0.9659881439716174
0.9710852012858917
0.8732666952111423
0.6756172729747654
0.41065186944780674
0.20537210989103635
0.07331775062997793
-0.01026179285389054
-0.09808715377181595
-0.2076990184871223
-0.3082489704025146
-0.38101409347943305
-0.44182192800501885
-0.49507244748774243
-0.5388333393522089
-0.5606714360847456
-0.5223295229455291
-0.29114851355667604
0.1545669855780586
0.5707652335019315
0.9137346883796434
0.982746208309921
0.9380043917086098
0.767905601538523
0.5559339231332646
0.3347785299325063
0.07011033809285634
0.010799048660745145
-0.044794339942682705
-0.13403888403185563
-0.27034270475549693
-0.35769579181548344
-0.4747639163335739
-0.5794957537237145
-0.6019527660802818
-0.6494662216173613
-0.6787208364491566
-0.4794620400964492
-0.1274675736853223
0.4434837756124549
0.7919682049915957
0.9353911242730384
0.8771755852310373
0.726279473887133
0.4630951304555433
0.25532855969801455
0.0526702548233563
-0.018463001365287265
-0.08513688246802319
-0.17784025260974154
-0.2880962373871771
-0.3919711769506998
-0.4590839145699559
-0.5118181424468251
-0.5331019252822574
-0.5555615961293292
-0.5397728017671451
-0.3778150504895917
-0.006564433795182234
0.4708740207096994
0.7949113451016091
0.9571995044121127
0.9564308092977637
0.8162077022448817
0.5950488602495055
0.362613259360823
0.1968829830136265
0.07554713011481905
-0.015663596345480157
-0.0980554648373791
-0.19984789977954026
-0.27261302285645805
-0.37308128921681233
-0.44506140687152407
-0.5209562510723093
-0.5696253598543107
-0.5584645327241593
-0.4496843294296279
-0.07843371190759324
0.3931674175707426
0.8253500454054286
0.9266950575949463
0.8811685709774766
0.7431603902089547
0.5334080305872566
0.28699555554378364
0.09372328003814522
0.004239630981299966
-0.089601263507046
-0.1935818398326007
-0.30393046228337856
-0.40396645406096876
-0.4699055294636635
-0.5444901510742485
-0.5796548052759988
-0.6141499217481635
-0.6126044082141521
-0.4917787110507904
-0.15745433276232934
0.23856088002506734
0.5982836312566502
0.7820910364889346
0.7932865598737252
0.6948020613424061
0.5480659166677287
0.3318286752615295
0.1779040194443055
0.06411896868293351
-0.03534146821104413
-0.1250162588513224
-0.22644597381396936
-0.30788982526251596
-0.3785782053839322
-0.44569094300318657
-0.5079930597361224
-0.5562182867727149
-0.5766006660288003
-0.44556602064001144
-0.10279827892364127
0.48025658045260616
0.6470215648398567
0.8410813279632203
0.8116714140895107
0.7036194759266591
0.4885733104343006
0.33940406721313054
0.13170566006824688
0.028930879272404078
-0.023735743514787376
-0.10038968362639257
-0.2233931191797836
-0.3177519626915669
-0.4358597067517644
-0.5347970130556053
-0.6144974323629372
-0.6867378494555695
-0.7296095301225815
-0.6322372745233771
-0.3460722450525755
0.07634595914152102
0.5007828250145526
0.7482541222114449
0.7631806577923896
0.6572476860839216
0.48093118264341
0.28443972378100246
0.11247878646081688
0.012951114367743377
-0.03839775717349334
-0.12547726609110266
-0.25809710827540105
-0.3360211183905783
-0.42812354750231835
-0.5216747591157327
-0.5623153689338951
-0.6429081046625341
-0.6703689478711335
-0.6108595607077134
-0.3342276668191867
0.13092866280343365
0.5311133990286729
0.7469212319590278
0.7703885236869221
1.1208282981325464
0.942712553153999
0.42074182281819394
0.14994725789804725
-0.058995066347631776
-0.1827307132908049
-0.36041866920814386
-0.546857853517492
-0.7896971774159897
-0.9389349095595968
-1.0880594472593321
-1.2371839483796352
-1.3525288452395445
-1.4772645589177318
-1.4335880319404009
-0.941557908358962
-0.07454761792068909
0.8527270863903615
1.5124230922879711
1.751664771055856
1.6323830977127738
1.3030059819776185
0.8980359517550427
0.512420632689805
0.20936754773635907
0.018984887685829073
-0.10034155730861599
-0.300299929847386
-0.5768551524603701
-0.7667471240231583
-1.0278189279960288
-1.318459441099361
-1.4857137034245864
-1.5901710547774974
-1.5346311766995735
-0.9449934988160502
-0.22165242287865283
0.6929957065754759
1.278861879227163
1.462146325772188
1.321710393135077
0.9867185548702522
0.516929374579057
0.09918656023573558
-0.2024144078038985
-0.40997828234611056
-0.5751488043367134
-0.7419208363213825
-0.9039455233682363
-1.0556351303888785
-1.2110265374297764
-1.3500926829090876
-1.4417694047625869
-1.4779133
-1.409177720467711
-0.9948822173517144
-0.20793217143038079
0.7568036854030081
1.5788806057887863
1.8025897311863126
1.7215453358994304
1.4440875366713701
1.0455161932039456
0.6266084606017043
0.291131008586164
0.06997216913424126
-0.07968144329955179
-0.30730485779099986
-0.4833347913032467
-0.6921448796741325
-0.9216790830924895
-1.139822156426698
-1.2478038264929738
-1.3557442832361275
-1.386053660476157
-1.0122624660043513
-0.12603092316034709
0.780639599677678
1.4908778922810229
1.6712074226075144
1.5295992660287523
1.2202414063451683
0.7980639101992855
0.3689714632089962
0.0026581130493962754
-0.12465738161527058
-0.2820979769992054
-0.5169485385712176
-0.712637619755793
-0.9147894514579952
-1.1041213398658187
-1.2555122913331775
-1.355496863684025
-1.442810947281618
-1.5177281536543135
-1.293332520471439
-0.465727743161956
0.7262735016030708
1.4011144119223222
1.6682839621170507
1.6176682365145265
1.3847412704727526
0.9181638124164591
0.5594346011277925
0.2004748439407855
0.02396688116063292
-0.12530102003455545
-0.2791482131658931
-0.4698346043774698
-0.6320196448751498
-0.798246757528987
-0.943819380858233
-1.0178744892521816
-1.07536230728613
-1.0873514482262239
-0.8249881114220475
-0.15958657107538865
0.8268335439739107
1.5259854909435178
1.8936259385018088
1.7831735892424163
1.4923631774614035
1.065105283103401
0.6044559371116596
0.22772104126359524
0.005822636653008516
-0.12840283680508535
-0.2905663900990715
-0.4936009919081674
-0.7173101134652712
-0.923068931180595
-1.0752547029709323
-1.1706889946191659
-1.2606815380775982
-1.2469256777796804
-0.8961181652738344
-0.1655632153475427
1.0441334855410298
1.5330470749654996
1.7469680130780771
1.6159452440403999
1.313061519573709
0.810282778116936
0.25541426191573713
0.051575839005023105
-0.19658038929613095
-0.3349040018776515
-0.5738997791587854
-0.7267676732374273
-0.9641533742722731
-1.1236767623358204
-1.2671775245806676
-1.3098850633633816
-1.3620540245217905
-1.344738661686736
-0.9031086821477057
0.12023328950977627
0.93290724792835
1.622561854750718
1.8651864235360502
1.7431663313029435
1.4832655376277288
1.0537439931255357
0.6819512996360608
0.37214993680564745
0.15859479123844045
0.017984909507915994
-0.12773709701018257
-0.33654719385928344
-0.5591458283286113
-0.7517087621539803
-0.9080000576205385
-1.0202255571829746
-1.0720539726918026
-1.0049412605071262
-0.40233481511322966
0.4352415625802352
1.1991374040662852
1.6671700651547903
1.7353017883967246
1.4877867921612526
1.0702148562103784
0.6077261468879112
0.22586663258271655
-0.03974782608114103
-0.22242295434068463
-0.4088173992158043
-0.6679087630087797
-0.8992819530766978
-1.0862776473485827
-1.2476728414783953
-1.3277319630995141
-1.4061055371077305
-1.4626838806514881
-1.2443011630015426
-0.28596062683067536
0.8290013110117496
1.3926607626269822
1.6410395753869889
1.5709584326724917
1.2723083235017394
0.8505201549779173
0.35769719295054003
0.04450442342201344
-0.15509432577322435
-0.3744964982562853
-0.5253078884487501
-0.7490170053680798
-0.9727261373279547
-1.162658768134576
-1.301061925580922
-1.398591385376344
-1.472237921975024
-1.494608826036583
-1.1155857399112836
-0.22114680072564125
0.5795752643113328
1.6082395214083245
1.894299525152043
1.7675459339048474
1.4543781649384337
0.9563678589256669
0.5191707387095729
0.23739991716793865
0.02983925800683306
-0.05468117264120935
-0.20978253369981814
-0.40354068786624864
-0.6010963592600583
-0.7629658147411732
-0.9094008563003514
-1.0382379718025065
-1.1234915771167138
-1.118905030420316
-0.8212809609302117
-0.10225883919522205
0.8600213444181214
1.6262974712389104
1.7749361094613747
1.5980836141655927
1.196518229712916
0.730173560607879
0.296281172718311
-0.021537541994849974
-0.18126437012067878
-0.37837543099201765
-0.5446420390525359
-0.7601058544180666
-0.9223049823841153
-1.0861707302597865
-1.2229812635975645
-1.332401132514659
-1.4332736933323083
-1.4372524174301735
-1.0935337663824487
-0.27641251431599867
0.8267098027357833
1.6128875448939555
1.8612138377145997
1.7749879871824215
1.4453386060147781
0.9696640988766334
0.4918704572464636
0.17159037103939756
0.01272891653618144
-0.1814224631021634
-0.3358355945371273
-0.5162793724884539
-0.7095726329600323
-0.9047486395016464
-1.0263884226090039
-1.1016287188110643
-1.168583642849118
-1.1798195750659153
-0.748696857295621
0.179245060142223
0.990442583254983
1.652753944802628
1.7392918638775996
1.5390240189662752
1.1685810454432923
0.7339821477424844
0.23108864979922222
0.009175640735619854
-0.13901886628065768
-0.32198777961645475
-0.4595948692798426
-0.6817337675877639
-0.9017968701844343
-1.0466384994475981
-1.217827652706165
-1.2774685317686774
-1.3371489016405127
-1.2077167088862752
-0.6500184084288041
0.22853643620364852
1.1633555027412605
1.7463217403599747
1.7084225942228122
1.3882892876503594
1.0002277252695195
0.557379656181766
0.06031160667049075
-0.08881289457298423
-0.24836830020478956
-0.3839153611581607
-0.525222230043794
-0.6628458392936372
-0.7720371981186259
-0.8812285569436035
-0.9930159063866493
-1.0828379907980485
-1.1041684685325535
-0.5574896966361387
-0.08022865948377256
1.033734816936245
1.6612415351026437
1.8766681823706035
1.737211967356805
1.4265026619193766
0.9745128924977795
0.5518329261842184
0.18277623027957418
-0.048404780804930325
-0.19189907712488266
-0.3574474695850275
-0.5732374217021444
-0.7429080153142654
-0.8915414614811672
-1.0163071481623862
-1.131500902235528
-1.257351722086669
-1.2003460431861643
-0.6571969855216042
0.37576144325081573
1.2109571166476187
1.8090609987078103
1.8818698042706554
1.6187514952332913
1.2465092377079936
0.7054127287096543
0.32065291635809584
0.07151748209443376
-0.07616521110950185
-0.24761847689387362
-0.4572590129953259
-0.708687117231225
-0.9437198425563459
-1.1305902331023867
-1.2492413343041684
-1.3090961434038195
-1.3378006501916533
-1.0403012423854754
-0.2569629087296096
0.8402291266025115
1.6480554372283915
1.8942973900038231
1.7426952700974536
1.4682936611748003
0.9869064043887492
0.5693309840375773
0.14594944545972144
-0.007438978334499477
-0.11929353925284764
-0.259897071589885
-0.4366653406537624
-0.6116054751923601
-0.7641683524458945
-0.8865072189677095
-0.9852740386172852
-1.0776062255857914
-0.9779325765845364
-0.4371303087016758
0.37837266472297637
1.1789846868563003
1.7072265610444928
1.7218145084748957
1.449983028750911
1.0813169691952997
0.6654311061223386
0.2799862405092951
0.03196092621612088
-0.08732077849628844
-0.25461733780120305
-0.43713925748951155
-0.6496072279944859
-0.8688312075067565
-1.0473025409238381
-1.1516852281094743
-1.2018773803010592
-1.1182851891723682
-0.6871674412144615
0.10548835553923813
1.0769965554171792
1.7951492590562033
1.9261789227515222
1.8150387279014009
1.5339522101819174
1.0384145662165425
0.6817519019183526
0.34382553409414823
0.0673486016731788
-0.06894582829933928
-0.268187341441922
-0.5220066720898342
-0.7064125653467827
-0.8882490278558101
-1.023683405002125
-1.1504026768150697
-1.2183880479118163
-1.1356554522601632
-0.5314778165554896
0.33381101862884965
1.1128301579994266
1.5557478177913122
1.5907588031374233
1.3584627150696502
0.91104451514379
0.4509568038316254
0.1083340135701758
-0.10632606164285824
-0.24789408233795973
-0.41002238774993616
-0.5964615720592581
-0.7828606919030064
-0.9139900213558192
-0.9973321289555764
-1.042616839206376
-1.0557306999999998
-1.0214585122486586
-0.5743106150829318
0.008028728993546896
1.0079134882562293
1.7572144930181959
1.8690690133259806
1.7014465819993907
1.3034948576818
0.9604593195069749
0.45723708071446856
0.1832299882986422
-0.023299753500634242
-0.157212479400454
-0.33961866322735695
-0.5336923783512264
-0.7382794772696442
-0.886860110172321
-1.0211700526004188
-1.083973530627633
-1.1876628
-1.1876628
-0.6567854047893382
-0.016181551627299062
0.9405078075294159
1.6452517388710852
1.774248623730363
1.6075933619257712
1.3167027241568874
0.8074829876997952
0.48593999063637006
0.13047977820550616
-0.09281420601686961
-0.26865862904899673
-0.4669457280092262
-0.6784527648110878
-0.8568559309914454
-1.0362417555325543
-1.1983463767065643
-1.3006710744736778
-1.3540951557342882
-1.294050830585772
-0.7847054892882248
0.16268709183558105
1.1830080120987658
1.6332958039990546
1.729791386903217
1.5566798025193813
1.1414837016272208
0.7017258496908079
0.31113680039676933
0.039807697686795374
-0.11647302931486682
-0.2796725371716338
-0.45751708846508
-0.6309491603761688
-0.8122803291132723
-0.9614048329002061
-1.0463188459492296
-1.0935360208255465
-1.1085036
-0.9585630692282169
-0.4953015822966479
0.312409036180717
1.2743582669118354
1.690637151485793
1.747660199035028
1.5554143391853328
1.207659614720813
0.7759203692945404
0.39737576729804447
0.1069240342619609
-0.07530206788710027
-0.30974093235889155
-0.510173712835686
-0.7441306685057567
-0.93524078903086
-1.0874069727530462
-1.2377152316732432
-1.323893088020668
-1.3279473223864606
-0.974841588907748
-0.19172654865851235
0.8110101585938009
1.4492235691117668
1.7213995695651245
1.5726212673233715
1.1488780567003891
0.7267607379900436
0.28853942949266553
0.020266888451305087
-0.1705529855209646
-0.33515581930897015
-0.5087958963691712
-0.6960948052703002
-0.8579048748466427
-0.9667617343663961
-1.0470497654097486
-1.0927956428873358
-1.0943687351469997
-0.9683927270272173
-0.557183397484117
0.43460862977818326
1.3250172166590666
1.8193212224880249
1.963466688315106
1.7575754401659112
1.3392975011150856
0.7163683250331239
0.4834413176097109
0.06842717822556847
-0.08925010912367312
-0.31628310639990015
-0.5639273950002148
-0.7972874777408229
-1.0121020304845485
-1.2002017464285613
-1.3217482895590964
-1.417275248154212
-1.4543919202626847
-1.175991557898654
-0.4061797113415612
0.6416589184378321
1.3701530036497598
1.6708825
1.6437777186113778
1.3529558810291624
0.8781704341968997
0.4078883276051523
0.04068161887667321
-0.21376105025703726
-0.41055215575937093
-0.6192649923926377
-0.8220796828837181
-1.041063449187381
-1.2700781900880334
-1.3865615071068833
-1.5030032233717885
-1.6045085098650405
-1.4897391362735763
-0.9851532412241444
0.051517470091089757
0.9535474066475722
1.641843396919183
1.8595091227667386
1.6617447022365064
1.3446666843245534
0.9170012288811934
0.4851879737634291
0.21554931287696705
0.03658201764589092
-0.09961270467268606
-0.2736219677578405
-0.5053470112230145
-0.6655088872931829
-0.8385769285980831
-0.9320656957550832
-0.9917065493830173
-1.0510431338317403
-0.8104600920621037
-0.1061244650473514
0.7489517781145952
1.7034980118113257
1.8228244500232278
1.7245641883094036
1.4710560474104304
0.961877504800848
0.6526998907504956
0.22821777437811863
-0.009113096557772704
-0.15411508476517316
-0.34247736983938526
-0.5209127720187593
-0.6932690275897126
-0.8754982229752704
-1.0226032615082237
-1.127449501557409
-1.1603352030671565
-1.0293943448288958
-0.4252166925715455
0.4879344804947084
1.2728790543559114
1.687165770738996
1.7281211725721177
1.5273119240589719
1.1321073992911204
0.638857377917071
0.21462731557796427
-0.07603743261942636
-0.26518779603122633
-0.43917174047145696
-0.6366576601555493
-0.8827376980928154
-1.116404728716141
-1.2725871504716633
-1.3737144055066453
-1.4438629301030317
-1.452790356595641
-1.1619685190134001
-0.323372011898281
0.6853716645265426
1.4239603790575308
1.7412287
1.6992635797541398
1.4372043351268327
1.0236422049471203
0.48448006549519673
0.2200166001950632
0.0544718533356387
-0.0653224493400594
-0.23741344721794921
-0.4347040311832425
-0.6177858832625663
-0.76676794265222
-0.8935215338993776
-0.9967929892444469
-1.0928003837183635
-0.9854355392518042
-0.478376426350697
0.4219790304687719
1.2500050401751863
1.700242738362175
1.75579990803861
1.549804158113715
1.1528262090801535
0.6432519599410139
0.2019113449023423
-0.08270367487818153
-0.2646482471749677
-0.4209349071225867
-0.5740273641981614
-0.7529946560379971
-0.958213811939199
-1.110310314445039
-1.234272336238454
-1.3323447170008134
-1.3562447578215935
-1.0066566037221323
-0.06180173807414663
0.6869750982702212
1.4677929132843104
1.727905894707295
1.6535043979605313
1.270645893258058
0.8198111635485941
0.3542229830472765
0.07520374787015291
-0.1549657065123506
-0.3221659904491713
-0.4596944797986061
-0.6290932218674677
-0.8847236517782143
-1.0311148823542
-1.1908264150112686
-1.324949082635908
-1.4119281950229299
-1.4098971767119106
-1.1116035060075684
-0.19343366401150608
0.81952327465086
1.759470994509608
1.8341623485391356
1.640295960325335
1.256877408598626
0.8988423029211728
0.47405698301934707
0.1459651873926256
-0.05024989524836871
-0.23128353361403756
-0.36960714619552915
-0.6146620578414037
-0.8362225852560083
-0.9899221806073442
-1.1023149858157542
-1.2136300681080983
-1.3196888053745546
-1.329604595024105
-0.7964154752018721
0.11545177312845968
1.0399613744794303
1.5270855324627215
1.586611638729816
1.344572734720932
0.9164156248114795
0.44956488304827324
0.06299418631116593
-0.1657012833353947
-0.3420715463254687
-0.4849722796588857
-0.6701895654795781
-0.8707420742576332
-1.04595791178897
-1.1828139955801145
-1.2827075095292915
-1.3499077580090606
-1.4072331996667986
-1.2635571033255575
-0.6902382524408277
0.46617957829090095
1.3247719050943174
1.9109107055357453
1.8636090619109493
1.5657197343018687
1.245439631542103
0.63899071693362
0.2366610192956437
-0.04673369322942114
-0.2600919141652314
-0.4614301261938547
-0.7155370420744663
-0.8796053138440945
-1.0494231651421058
-1.304969983692594
-1.4089873958460668
-1.5325574613301607
-1.5980722517961548
-1.3680220316354148
-0.4857361953325156
0.36605819819690827
1.3653220670593529
1.6893592020132155
1.6416872938127094
1.3440295040623893
0.8882689090838083
0.3962882522594506
0.0031993662830062664
-0.22097337981437015
-0.3936148837329741
-0.5624666809540552
-0.7421117147956475
-0.9278329643099756
-1.1082767253049126
-1.2368500032905099
-1.3292128258476186
-1.3881041519859532
-1.3188154581465454
-0.8383735206983605
0.18240166214181158
1.5304983483361854
1.8090851121308016
1.9295508781818267
1.7059896155134855
1.28196891997513
0.6908199430201052
0.27898326662105105
-0.026275486889065447
-0.1833214604346874
-0.3647644540522112
-0.5467294575491547
-0.7368838344597918
-0.9190278041719852
-1.0820364055974565
-1.17522321275218
-1.2966811148630706
-1.3987541
-1.3293910948517842
-0.7522215326739863
0.33139058631481255
1.2732828092138817
1.7842299475271777
1.8567718716267965
1.5930123628397237
1.1004216275854093
0.5784187212671666
0.15799712104325242
-0.20485425830213733
-0.354955515065433
-0.5115518943655148
-0.6923130466015653
-0.8776112364377908
-1.0514199390915635
-1.1860043080150668
-1.29220387517206
-1.3388171215495104
-1.2717574083269105
-0.7592669237565571
0.2920233762751072
1.0576991601205479
1.8162955623943364
2.027384264947404
1.885773885484867
1.4904488248128542
0.9848542147880854
0.5614138932760336
0.1740437515092915
0.04548560012327196
-0.16741853775456633
-0.39441095410051585
-0.6005087504428511
-0.8015447667696434
-0.9560993120918972
-1.0950524436940794
-1.157116061616681
-1.1980407254539953
-0.9305371823060293
-0.12150201932148141
0.9204087917543262
1.6992413188953257
1.969922552024777
1.8417141565703425
1.5289183211846438
1.058095112809799
0.5961485392562027
0.14323790379782297
-0.12473334751907905
-0.34077131791573256
-0.5548098390759785
-0.7977934898333234
-1.0411617180812542
-1.2064865827303488
-1.334031011690697
-1.399280461545878
-1.4658855543678393
-1.3208040669189562
-0.6121954820841496
0.31806195854198627
1.2427096136723226
1.7948294414108905
1.8863825847231501
1.6751273514544585
1.2650238405293859
0.7832614488661579
0.39851290417477353
0.14356927023285268
-0.023689221204547466
-0.18876841535720074
-0.4120491315001946
-0.6231378588823053
-0.7801322410012668
-0.9141137997941204
-1.0180270997866137
-1.07857515713111
-1.0702202097339364
-0.5174062005423067
0.3664091701439427
1.2258323608071091
1.7927951554388508
1.9506560671623625
1.7986926051462204
1.4780279455982825
1.0003343996498473
0.538246241593311
0.19132966500264306
-0.03884101597989834
-0.23157475937355906
-0.45528388477109716
-0.6639018684771821
-0.9260841760637957
-1.0131725209908433
-1.125027075211394
-1.1982023494899405
-1.1440417100106082
-0.771344042916393
0.008922393467857503
0.9959803971585177
1.6908975200888405
1.925292626589874
1.794458028896836
1.500478743379526
1.0372256155341968
0.5494896878181462
0.16930081274587727
-0.083882719658955
-0.27267932856562993
-0.45935190521496233
-0.6678081277989395
-0.9089088620730035
-1.070389212938257
-1.1504483345593943
-1.246923645071127
-1.3056423340484666
-1.2012596468628487
-0.44685742381034865
0.5898258920389746
1.238582321779056
1.6195357461482054
1.6543069973380082
1.4189095890368182
0.9957714790294843
0.5063309594340336
0.08871077082272688
-0.11598668428873193
-0.27115487276996053
-0.4260578048619108
-0.5998083135407937
-0.7887729239153447
-0.9489348082618966
-1.0638246268124691
-1.1304571225337752
-1.1826519656155736
-1.130801097121398
-0.8241616592893789
-0.16460594969350187
0.8942540842318045
1.5085186421463985
1.7432227069996724
1.67054735468104
1.3787199433149782
0.933074547005671
0.4258171643885911
-0.07798498545498622
-0.2420400953105293
-0.39888690697523016
-0.5003166219378847
-0.6630848336752082
-0.8304345014179888
-1.0001016284215694
-1.1815361755689635
-1.2337499015961884
-1.2550384236396335
-1.042955052416202
-0.6280279302628379
0.539692987523406
1.5499609482829118
1.805794883692229
1.8461651117261595
1.6194601277006522
1.1795723482733538
0.6753271858739159
0.2186024975999578
-0.07496904556767912
-0.2509835642058311
-0.4291480147658099
-0.6233801710073159
-0.8398713560002264
-1.0458630527207977
-1.2095039829354095
-1.2958478642627862
-1.3181515784589568
-1.3195948
-1.151684701073956
-0.43336952821993513
0.5635957064175356
1.6000362568831403
1.8424027522155138
1.807773015338334
1.597486483246863
1.0759176256658232
0.5663181398077741
0.1040008655512703
-0.1480377217861431
-0.33142629123195194
-0.4984811858115681
-0.6798204229539692
-0.8812153414475105
-1.002073441074324
-1.11530301855586
-1.1865004210231018
-1.2327812455646865
-1.2435466012723673
-0.8340388873736724
-0.0773787439459066
0.8680967124473162
1.6584854998747167
1.9504453758197147
1.8290160061570473
1.5216261554559645
1.0900197462710013
0.6360194032083638
0.23901805582379715
-0.07167051757884997
-0.2804806127323902
-0.5299512647141676
-0.7950291628101717
-1.0377793302753198
-1.2274211036134914
-1.3514776677482798
-1.4581296522277467
-1.5653265445802331
-1.4998007545030354
-0.9479998419570227
0.15191295159442697
1.4853333508357145
1.7110100008191804
1.7858467375711449
1.5946976758661158
1.2251538085898241
0.6811356942858151
0.2085541235420349
-0.08279940089395489
-0.28886552682553446
-0.43849032765562235
-0.6175265408018142
-0.8068392855114046
-1.01336837040966
-1.2390671391658172
-1.393567550648413
-1.4887955599733926
-1.5559082721580555
-1.456942764697616
-0.8333731381422999
0.14768540846969336
1.1321665655210422
1.8641959150388956
1.87031194698152
1.6081057238074814
1.1982977922759432
0.7034632513965349
0.2007267395787839
-0.03949424404280005
-0.25262730442747017
-0.3637038548421689
-0.5392054870520783
-0.7061779929169275
-0.906398881858479
-1.0138612256509292
-1.118328066506491
-1.1977490487950626
-1.2499180947354025
-0.9493112347505754
-0.06261826136848542
0.9358861222579946
1.656041019899029
1.9805275140462437
1.859421172742398
1.52481483358401
0.9195452656216891
0.6055628156942421
0.12405273842820752
-0.06877349978684644
-0.23759623988229736
-0.40369043792621395
-0.625672691476682
-0.8336471945127278
-1.0311348238275961
-1.194303100160639
-1.2697881251624044
-1.3491141605161314
-1.2811714876592877
-0.7395823214032844
0.27231416260185815
1.292707371715919
1.8225302098720269
1.9263725078113718
1.7148630355799592
1.3655901961288897
0.7793682925143898
0.3496627646731624
0.02298277467602304
-0.19431119990289974
-0.391806617562107
-0.6099797352200182
-0.8392306470431928
-1.032954491953643
-1.2052028504899939
-1.318756954434429
-1.3982130768206709
-1.3971337433814863
-1.108443685601114
-0.3012335268714419
0.9451821095188865
1.6408072280397252
2.0339191049592067
1.919669597235437
1.5757056093584076
1.0657776638756076
0.5969587061873676
0.2216004486994671
-0.039809433474367086
-0.23379089006472445
-0.43602602121002854
-0.6326045650420885
-0.8565136711197843
-1.041266734373918
-1.197929221260593
-1.314855526062165
-1.4077989860630895
-1.3445728689917733
-0.7917874716539589
0.1338074510517333
1.0998475275829256
1.7777165788326879
1.9484633897062085
1.7494460470371505
1.3418128903228674
0.8336009606502817
0.43792593389589407
0.1685944032392218
-0.0023013807436413347
-0.12371734731477049
-0.3250555593247354
-0.5149137448707336
-0.7298437205957682
-0.8945088365682154
-1.010924328853132
-1.1147192853325123
-1.18752809089537
-0.9197085225662016
-0.15677891067434502
0.7814959912756404
1.526208376411222
1.8330915408209745
1.7152326638859083
1.344491998051888
0.8589371270978658
0.4559448272511755
0.09498145351331495
-0.07197228578154448
-0.17666898915047416
-0.3439726698518477
-0.5491239768470403
-0.709285852917192
-0.8593223644733323
-1.01943357832105
-1.0922735816019267
-1.166813446821884
-1.0934060973293382
-0.5716377224732725
0.3194409900092187
1.27251552041439
1.9111120000986244
1.9547885270759537
1.749572219685822
1.3583625749056714
0.7628694432791663
0.45886148788193737
0.20028152405402985
-0.027360345453000805
-0.19071659779266958
-0.3986121438296933
-0.5925232121303787
-0.8060603160291908
-0.983069280942593
-1.1231467606291516
-1.2284917803883646
-1.2685413407510528
-1.0821021903544685
-0.31036821663036507
0.6070635152325939
1.6422278826465608
1.871393557705172
1.7848533438211645
1.4365823869155667
1.0752443814376969
0.38884609624230426
0.17775736886019358
-0.08123158185329804
-0.27633023130897827
-0.42082732709613047
-0.637666557086892
-0.8232374218426666
-1.0133270291436836
-1.1860418643397783
-1.3003464573596848
-1.3541386005591556
-1.3466666826550486
-0.912504688552695
-0.054860180431850925
0.9320714227564652
1.6552479082893254
1.8810482047548092
1.7534186660280557
1.360095095654081
1.1230456763921053
0.6681555331275211
0.356668856774041
0.13630768232289187
-0.030226948770378716
-0.15731960989255678
-0.377644576357939
-0.6009136608591421
-0.6984990208180251
-0.8177807280738719
-0.9439071390804552
-1.0379195699246644
-0.9312207813345409
-0.29813492244658235
0.5347885615048134
1.3678199058827656
1.7852957007661268
1.7887104368156508
1.5643776602964592
1.156796031992212
0.6594101924974394
0.24386971495849447
-0.04351828772407805
-0.21165291900813166
-0.41326548952817754
-0.6355942666603485
-0.8451694361085866
-1.053161920812656
-1.1537810531834418
-1.205338781178668
-1.2942039477863114
-1.3273566463586062
-1.0421404003877892
-0.3371199117841682
0.6291632317678248
1.5018701390442424
1.8225347985920664
1.763483390835687
1.4880758514900667
1.0763886314776514
0.6219529745886015
0.23751587815265884
0.011920931234322658
-0.1427561159283425
-0.3915241727940114
-0.5110975667501114
-0.7003480223671519
-0.9369530323165727
-1.0739290575000173
-1.1585016702986068
-1.2828252508060525
-1.2805462607892533
-0.9331282576587828
-0.06857099587612125
0.8882782313267107
1.6138827232733297
1.837673914740495
1.7395798863857144
1.44959937474748
0.9013268935724787
0.5264845725110248
0.21299125173827083
0.014966936245624202
-0.13794903660622956
-0.3264051950144512
-0.5351614556428912
-0.7216006314740875
-0.8952045866830962
-1.0211032559125437
-1.1133481783174104
-1.1743311729658445
-1.1445700483814678
-0.6277455080130739
0.19380633314407902
1.0484495778837628
1.5875167174560116
1.7151931230917845
1.5429066649689829
1.162601126358663
0.6902978982839792
0.2777963012489499
0.004851963936955986
-0.17211575700736542
-0.38043678415039955
-0.5706141294219553
-0.7638785747663336
-0.9630813485086137
-1.1024833256308413
-1.211160645995163
-1.2839694515580078
-1.3322727731582755
-1.1339300541905
-0.5406562107588373
0.381752625808635
1.3285993964351204
1.7872031779869753
1.78336041022925
1.564140056453028
1.179507980165818
0.7312375193292946
0.2600881496783548
0.011435318878728673
-0.1425825184404014
-0.2983808845763788
-0.4765092982056588
-0.6859088256432653
-0.9021460670494377
-1.0679229663417922
-1.2031606169353177
-1.250388885952733
-1.3100297650152393
-1.0678046891115016
-0.373632530687966
0.5729428122683199
1.7512841799488488
1.8855096043182307
1.8391128863120858
1.6334433728927402
1.1585720062143616
0.7224291310945925
0.3929739566791344
0.1442039604421581
-0.07786805064981162
-0.22703729302317
-0.4556347225697695
-0.7386639617824782
-0.8583195943081487
-1.0381234329868008
-1.1505171498018396
-1.228816763047306
-1.227441629282939
-0.8457237315378117
0.033614169044932786
0.94334970163371
1.6605375925249517
1.7825588431973152
1.5994741763762717
1.322808061951429
0.8142803104106753
0.33204467496106105
-0.02503109158863872
-0.18580162974753917
-0.3594191408128622
-0.5375297030136229
-0.7666376738117758
-0.9710793608631976
-1.1273746516972547
-1.2482831852002134
-1.3480036767006442
-1.4062681511083734
-1.3783896771571666
-0.8723806976974937
-0.052548172632549406
0.8683518911920365
1.6187315623876781
1.8790970293280669
1.7522986732120545
1.4243457557692891
0.9748285970663247
0.5376809779346865
0.20392251325426708
-0.0022482927162189702
-0.11410285363460683
-0.29027681284909046
-0.4754228052767095
-0.6517932731122388
-0.8051889635674606
-0.927586194256519
-1.0394407739116778
-1.151295298186532
-1.1945969636682574
-0.8610122838201598
-0.12027477688750787
0.8386682987701597
1.654955561932683
1.9010355913917802
1.7892825212202925
1.5208394859890528
1.1520111455441877
0.7159408110934906
0.30532806166382903
0.0592480305091444
-0.056913690546965316
-0.23430450104541178
-0.3607343279246563
-0.5620171114281018
-0.7405958774938021
-0.8827843578487704
-0.9720164268263745
-1.0281733527343189
-1.092736070011743
-0.9212406536850399
-0.2517971148103493
0.6462162416183808
1.4113039301188772
1.7926416519650896
1.7909057339206989
1.5791427241960134
1.2307377037066727
0.7939281510622209
0.4133787024728966
0.12859307818680632
-0.09231425451264835
-0.3009965015014644
-0.4948628303679212
-0.701118416349854
-0.8856902909714077
-1.0186347287499524
-1.0905820611778445
-1.1203841149826401
-1.1576540899836008
-1.088568409760845
-0.6283259937655483
0.11502004624768619
0.9510103421494118
1.6408272712061374
1.7864011832933104
1.581972078601808
1.2505115944699576
0.8147572273862707
0.38000959722411665
0.02919293037127614
-0.16019697187303425
-0.32673154757692824
-0.5125186893626934
-0.7045988698862855
-0.9286527378862071
-1.1173857096782611
-1.224842753334147
-1.2752135973792358
-1.3364529181686942
-1.3347572431981864
-1.0957858632330666
-0.25504982326249603
0.8965439359622009
1.512804067780643
1.8150994874172786
1.7441245609046279
1.4397997044962814
0.9875654558358644
0.6111697308073615
0.15941846445108984
-0.02780101578463965
-0.19462022441907179
-0.3586234110866607
-0.6101950869316075
-0.7846013804114329
-0.9541744580996779
-1.1445096017172596
-1.1979827869046205
-1.2555974235401277
-1.312121484873829
-1.2673796767507282
-0.7133072122173212
0.3170838527143456
1.1190265896870524
1.7497033785182825
1.8246179958353452
1.6678063527752043
1.348163180443146
0.8446790573524179
0.3307377293886899
-0.03940928029009544
-0.2906305726256522
-0.5394981474342806
-0.720456222284563
-1.0620230615991844
-1.2012263347466248
-1.2686512752971075
-1.3320540872169255
-1.3846031067060627
-1.4792064767189486
-1.5437245146367404
-1.296439518043436
-0.20785391989250102
0.7108999197386329
1.520700682343282
1.861063863550469
1.7795533374334271
1.4574427352948236
1.02741905750989
0.5095463112819618
0.1365968123129977
-0.077519114335781
-0.21273085727379387
-0.3520915094772528
-0.5603050106492354
-0.754817501102486
-0.9516526555641908
-1.1086849879384177
-1.1883680188426498
-1.2405817448698637
-1.2927581365477863
-1.1249669758132546
-0.5711533884587507
0.35007137799477983
1.3762033248673455
1.8202626925009133
1.8627937006484014
1.6600785969878653
1.281564524494614
0.805729811847296
0.35622354479915785
0.0654016885648625
-0.07588279424824132
-0.252940482205737
-0.44669555890538715
-0.6881625131577593
-0.8483243975042499
-1.014309936938257
-1.1815549952348758
-1.2564012491117755
-1.3060324417266838
-1.153793084666149
-0.6822421262126507
0.41991485385231236
1.4331350243278327
1.787086332110462
1.8045730434627218
1.5955285221164859
1.1550966926057518
0.6647753327255416
0.2580109274842441
-0.013833026878494976
-0.18564851262480486
-0.34599821055854624
-0.5424796007939897
-0.772139384637095
-0.9903731945177778
-1.1574804894265867
-1.278324207663466
-1.3486114271979284
-1.358604018537984
-1.2818391080463982
-0.7747799781886234
0.19413949253081386
1.1157277824883822
1.897525626639561
1.8756873631509001
1.6423766704573266
1.2815286377399129
0.8239956118305019
0.3890496080704262
0.11011826814101774
-0.046478121332897915
-0.1688353791241225
-0.43606087176110075
-0.6434717660302302
-0.8044197198160247
-0.9819641711633841
-1.0850216911308532
-1.1597464828227197
-1.1990840937075
-1.050029039269446
-0.3360221290724495
0.5311037332682363
1.367730941954024
1.7749387863495942
1.7570280149525783
1.4537929739478923
1.0209634321879704
0.5608061129944826
0.2045935099335598
-0.07679597572248156
-0.2468945653090569
-0.41749270655575976
-0.6043365755946037
-0.8028166396314568
-0.9957858087023762
-1.1563755332211199
-1.2437286699391061
-1.337905665137725
-1.3286775480188444
-1.1580805726625738
-0.44995336023671206
0.7421800318452842
1.5266692205552679
1.9270621749448216
1.8516633954185338
1.5793276630635154
1.1762688537080948
0.6887091902510587
0.2507592362459924
0.03733518043304568
-0.10463212970674647
-0.2485554029479224
-0.4250268551354331
-0.6387292994611593
-0.7830897814043389
-0.9332914826047802
-1.0159268281299216
-1.0944692170891703
-1.119237783068795
-0.9071059526483757
-0.3303957914700376
0.518650633983682
1.4358580650699782
1.8467743000000003
1.7893712707013767
1.5255547809343961
1.1005074342009677
0.6354747559141356
0.23873434262925755
-0.03569090974164138
-0.2126854226809288
-0.3873351014912313
-0.5961451983404171
-0.774090042491361
-0.9673526324098923
-1.1208526484998311
-1.224178237535
-1.3102788753740016
-1.362447836532404
-1.2566796931649058
-0.74364432235577
0.18344742443582096
1.1727041818071613
1.794289781616355
1.9471577088003065
1.7721767462008573
1.4097732162337238
1.001160928051521
0.45010631886102326
0.21989486595664504
0.04945172486661262
-0.10450219252487652
-0.3110025017664466
-0.5062653638097552
-0.7209971708338615
-0.8778336523547526
-1.0098123740538811
-1.126099013768853
-1.190144345670045
-1.159535287749091
-0.6204548431299237
0.14026592236203905
1.2398459641023187
1.627623335834933
1.7354625237718881
1.5820214663601369
1.2267072929604699
0.7923416956385214
0.3807017368128498
0.06547493262158374
-0.09859333575674238
-0.25592019281387707
-0.44138868788604435
-0.6403994104768125
-0.8352451203440132
-1.0111533323670865
-1.1453787906492672
-1.2558915051639201
-1.3395100677252743
-1.2221805228220866
-0.7638883696763585
0.06764924989199622
1.152268864426457
1.663832244317242
1.7466935233286476
1.5614624199354539
1.1985713931671873
0.7386780895145731
0.31543150323012603
0.053372248588365145
-0.0864975428129858
-0.25177075953565786
-0.44581057175324595
-0.6906628000510878
-0.8560235848538033
-0.9743517535511979
-1.0671358359411602
-1.1479141223936358
-1.2286656902950683
-1.1995567541880072
-0.6387024004466464
0.3083614801307037
1.281671228815779
1.7707093519374153
1.843804130162835
1.6619824767220417
1.1982923117680737
0.8744695162799037
0.3497844191633871
0.09864429469354591
-0.07761010229547993
-0.219307459829632
-0.4155146768562344
-0.607746133917281
-0.8619138544984793
-0.9332290258049716
-1.054375996575763
-1.1187362060326216
-1.1681816206588433
-1.0956538216712866
-0.5737984896852435
0.3184503116396775
1.1675561601207505
1.6559181425638563
1.6830144101563103
1.4682412935724483
1.1007248842448114
0.6386658738109036
0.2762902982225835
0.031397712935282984
-0.10127901858000314
-0.270176209977254
-0.48331703516145696
-0.5852144037185362
-0.7211854177908851
-0.8118965599187111
-0.8939530655206275
-0.9569463776969837
-0.97657151
-0.7488587699299937
-0.1487006411076423
0.7208385965146688
1.5410904764942324
1.8178496138909197
1.7888582797358823
1.4862796075274873
1.15818779494445
0.6799027889130161
0.3028770076360107
0.18355056094596411
-0.019380832429995255
-0.22058438039577327
-0.41116907538647707
