-0.21351328
-0.17755444129607095
-0.08394610913913461
-0.17683370100502369
-0.3793130372937654
-0.7538966329983443
-0.9110687652759324
-1.03149340354865
-1.1140098203257107
-1.240721854652139
-1.3355462588585594
-0.9455089448295626
0.18167244911364366
1.407781389065154
2.29070060617273
2.3179435249029985
1.7486916050844818
0.9877239321779183
0.3879707850307934
-0.0424782003014786
-0.25211646285735384
-0.23816674127355575
-0.21351328
-0.2333093416900043
-0.4012013576363431
-0.6425157195142362
-0.898548078536441
-1.0693925920780591
-1.186748013894876
-1.2920579241492456
-1.460291365594524
-1.4914974480006884
-0.9864805170943682
0.16298947670747077
1.450967119482908
2.253111109012088
2.1220486464625146
1.6287478702813885
0.9505418540382651
0.3730999240652337
0.030978228830305196
-0.07053030006946624
-0.034197648334852226
-0.015413006
-0.05749537039918874
-0.23721155549346568
-0.5050951803056573
-0.797224773659779
-1.015050641111821
-1.117381161538063
-1.138081817225149
-1.1203345127565263
-0.7167159081105745
0.35821141144066215
1.5115437715768658
2.175861464949193
2.1101877203245025
1.6505475464717665
1.1434994181462708
0.672015456401696
0.23511724656074023
0.0010477027354510275
-0.015413006
-0.003969914502278389
-0.03250645433970275
-0.17992433152970233
-0.3864764257322851
-0.6464430498179446
-0.9175288197131991
-1.0981960893984517
-1.1802476775795214
-1.0382260073589413
-0.45024834869027563
0.6368584942104571
1.7021534403888845
2.0538958355970913
1.8661733761819075
1.4260343769073427
0.9040188656907924
0.4295187761960213
0.09625352842685274
-0.07334365683254322
-0.15280264706749258
-0.2568234722040586
-0.4468231847718803
-0.7345483532921019
-0.964447739077853
-1.130515906542199
-1.3032679541822811
-1.409300031276819
-1.4784582825695276
-1.3766171501500255
-0.8360512914112442
0.12472528333346744
1.2074862595395457
1.7919055819713399
1.6697487065168062
1.1697965491287006
0.7290652705101671
0.3529935390665999
0.08894611352024787
-0.007826253775432885
-0.015413006
-0.015413006
-0.07163258563318581
-0.16921296439658495
-0.32039656411852246
-0.5299430530898475
-0.7483434843225296
-0.9458094176809467
-1.0911846718188634
-1.0700084873015994
-0.5988644172115125
0.305208540784609
1.1873451190422957
1.6673346865720904
1.5949800014049567
1.2132763458680862
0.8661758219893236
0.5493956202934265
0.20405439186398305
0.06358128610289879
0.050620418
0.03805345163477825
-0.014392318910029622
-0.11663685021661742
-0.28121789145468024
-0.4791966983056043
-0.6686423459702198
-0.858388059177334
-0.9867436842017047
-1.0219087247751355
-0.6477977136342774
0.27180009991799425
1.1868697954915834
1.6163542306719192
1.560426997393906
1.2366167270982769
0.9542817892960056
0.521275263460987
0.19832824538756677
0.01413804505707647
-0.015613969208421175
-0.0323101221220097
-0.09224151149103585
-0.2744596134051854
-0.49723680022881067
-0.7301327447457294
-0.8638667838547881
-1.0369873840798232
-1.1444054008919693
-1.2179263013210782
-1.0343462314685292
-0.4096108509564962
0.5589842415694137
1.3052537571291494
1.542463956275863
1.3185430802310611
0.911462517149197
0.5398673091588038
0.16901688082366997
-0.03695284970924714
-0.1359159283070578
-0.14941369322585202
-0.18137680280533136
-0.2975770074027283
-0.4631611529404482
-0.6402222373958151
-0.757585466100154
-0.9034431829533873
-1.0454564536852569
-1.1871384173945403
-1.1725975273605505
-0.7395642047793709
0.11588056769384503
1.162613361994828
1.5781060928244361
1.4151288789636156
1.056580520175727
0.6508075096451885
0.3044346580531221
0.07012484217173869
-0.05452355107044117
-0.081446431
-0.09829189053528642
-0.15573403784135664
-0.2639943523418155
-0.4495922964993228
-0.608171587132006
-0.771987779126148
-0.9300874781440219
-1.095643655979628
-1.1890119010650557
-0.9983716674738107
-0.3193024916839214
0.5876380785276563
1.3725998052757242
1.5390024450034094
1.2379216613110553
0.8196127644942812
0.49368083256017037
0.16372377781097935
-0.09935139849297439
-0.14747986
-0.14747986
-0.1673929640146615
-0.2574951869603489
-0.4037179095122786
-0.6045966264345715
-0.8492049129193113
-1.0495228172757332
-1.1084682842938252
-1.084311097044449
-0.9856379598991635
-0.5493045721933035
0.29504062943049975
1.100528352240642
1.4101201452018493
1.2299691688716843
0.8421355697081186
0.40798372997895493
0.05561174640039465
-0.19914278869274854
-0.23256013428710767
-0.1519913359909849
-0.12024305384149775
-0.2134567460355821
-0.3625878119516847
-0.5318853767035518
-0.7116324893353727
-0.8638648802432338
-0.9746745856753067
-1.0247069593773726
-0.8804798983786699
-0.28289281994135174
0.6664791831921253
1.3483067751345095
1.4521980569623683
1.174603527746521
0.7720640332392374
0.3262093803688399
0.016031702845293816
-0.17485880436160228
-0.26573642205510034
-0.25041111480885403
-0.252177122448844
-0.3114678016630299
-0.4375337966774958
-0.6401497055656378
-0.8418942508162921
-0.9670321741855096
-1.0326924642928534
-1.0673132952259365
-0.6852295710988119
0.09569384441695838
0.9664573391085469
1.4430432309900305
1.3925142696271466
0.9822504068293136
0.5382912262381092
0.09915176614998739
-0.20663853338608879
-0.36404398443521746
-0.37332444382884056
-0.3204489503883394
-0.31256342
-0.317943780541494
-0.5042790106073816
-0.6125903945678061
-0.754735356532804
-0.8805833519764555
-1.0487823062629074
-1.0040170342507497
-0.402510831831568
0.5029369112589541
1.325463975801581
1.4608590863875424
1.1651975983350136
0.7173187418316158
0.2522176214575005
-0.04028690864341048
-0.18778936055581633
-0.2746600774430363
-0.21630583343434173
-0.13899524229312554
-0.15410351381650275
-0.2957845977416201
-0.4295519021204982
-0.6465684521226407
-0.8341993328998589
-1.0512450388136627
-1.0237294753724595
-0.47361966434740643
0.3652186813302653
1.281901222314742
1.560093689153615
1.3091443799889446
0.8907759177872572
0.45631846029843703
0.032875370253988116
-0.16712865018176196
-0.20987197852717696
-0.1694112323103425
-0.14747986
-0.1632393819009103
-0.24068667717317693
-0.38809271304756404
-0.5314919482492805
-0.677853855324924
-0.8628290140027082
-0.7973400468388538
-0.2736351061503639
0.6742555438292411
1.439521409000904
1.6623605642346015
1.4070098736009347
0.978037626491561
0.5014771322406735
0.056742253141393806
-0.1343690357791484
-0.2491094186213857
-0.2558841419359638
-0.17950299931453584
-0.12775812512230808
-0.252828681267238
-0.5138871526654041
-0.7731995505066532
-0.9673257840098403
-1.084345081851483
-1.0288990895419865
-0.5840636405912456
0.1973263487713398
1.071774200277571
1.3840314472628448
1.2416197474522392
0.8747246610163746
0.4641075669517962
0.12088793918380099
-0.07927441173936382
-0.14065880821535376
-0.13196807117568515
-0.14433572063626762
-0.18208961727321932
-0.21872792014002956
-0.30364142389932586
-0.4359804367224037
-0.6746132717328617
-0.9038105863089878
-0.8244074768627999
-0.36293674404263454
0.37998804444928896
1.2296220193760288
1.4692942263763868
1.2237920505518498
0.8304312793853407
0.44756168074491426
0.10418668651811283
-0.12835197744205692
-0.2082946460792332
-0.21351328
-0.22974415788380664
-0.2643210934797796
-0.29560874560014083
-0.409307753120156
-0.6190966827283284
-0.8212042051516689
-0.942469399466631
-0.9389868445763423
-0.5177725640001688
0.5435721449649629
1.352460578991447
1.502371118290148
1.3005694655669293
0.9444931634765593
0.5186475541358031
0.08960920200604383
-0.10333942541012678
-0.19349716692575297
-0.21351328
-0.20662369862005553
-0.17305134172600103
-0.22029704533448702
-0.3693595498698764
-0.5395384037817623
-0.7856371188165654
-1.0176500560776853
-1.0362690300309054
-0.5540715273292447
0.23195746420018298
1.0563422082812441
1.3751242904151817
1.2862951974419068
0.9037191935442339
0.3563504251799141
0.023958565676320542
-0.2342130149757615
-0.3100578025879678
-0.22468981008841693
-0.13874087355750137
-0.08181510402548378
-0.20381945890319164
-0.37403256146838837
-0.6264769514545401
-0.8183694126768403
-0.9910776161839145
-0.9894392898124755
-0.5705854622125572
0.26039095446731486
1.0762161901322618
1.6029892699000095
1.4642553487492929
1.0989296149543462
0.7293527175765806
0.34589392217773046
0.022514135572949068
-0.12590248748711588
-0.14747986
-0.14747986
-0.14747986
-0.20720363564301938
-0.27543321841947666
-0.49810806652943684
-0.7642725949972743
-0.9996212914109316
-1.1072924972774387
-0.8777031880069561
-0.12616789835296738
0.850710500522286
1.5236933074067487
1.5880929806799409
1.2505907480113938
0.7862446132290141
0.4308822083165192
0.036826267054777956
-0.14801575203659417
-0.2533048313075485
-0.22484031926235473
-0.21591810233523392
-0.24732717124591486
-0.41088048491068546
-0.6413055670514727
-0.8221712211607699
-1.0328060474548388
-1.20643841014139
-1.3475443710908217
-1.0819635121718703
-0.24207722924610342
0.6829960276846372
1.3228398150511833
1.3691031615527995
1.028665111096888
0.5502754234652402
0.19526406827982362
-0.006692334801851841
-0.05767613166429634
-0.02643044430036741
-0.015413006
-0.029875217953111367
-0.13475951819029092
-0.33944510193947025
-0.6042429337842926
-0.8311030815393773
-0.9671125352180877
-1.0322821823516461
-0.8327738608165971
-0.30290473946300905
0.5727744431240029
1.179834963944579
1.3590348475630682
1.072395479812021
0.6640314724119432
0.31310731896852584
0.05862397070127549
-0.029604118042523313
-0.050699610963736715
-0.05925139837639057
-0.14923562189413558
-0.3381640385538256
-0.559160678354338
-0.7352563887309174
-0.8705488177224844
-1.0042066811154209
-1.0928483607084742
-0.9405850081915671
-0.2869443270224259
0.5245984819180504
1.219641447712997
1.466430069042697
1.223166394833116
0.8084013484264829
0.39729487664036717
0.1086049264040631
-0.08210582489060585
-0.14747986
-0.14747986
-0.1716759377198491
-0.2691498794988786
-0.4639264099463658
-0.7243245164047158
-0.9293126276639231
-1.0397120143506484
-1.115339698654961
-1.0852894493711662
-0.7194181802182681
0.004305448762723707
0.7670059869070736
1.193170920028036
1.1712605284374662
0.8068380064400678
0.34227928091441867
0.013533526965717857
-0.12063540723863087
-0.16622349108843978
-0.1546846385998948
-0.12893052307762046
-0.19098001691157937
-0.37028497474131994
-0.5723592481654858
-0.7425156948470849
-0.8865752429301349
-0.9892875297753025
-0.992874792223596
-0.7864567229655972
-0.2017142491056182
0.569631874770162
1.1377972068672857
1.146269848802081
0.8575833859377311
0.5398370063360807
0.18597589560933303
-0.02882645821261058
-0.14535420638825503
-0.17202628924052357
-0.1327122353805634
-0.08225471713939289
-0.21978889102895482
-0.4490477622897421
-0.6611601758983283
-0.8141944567085561
-0.9602890650481408
-1.0357062824283425
-1.0393905567591086
-0.8581911044703694
-0.18485499758286938
0.5680086486940272
1.1616148046367525
1.3666730735151855
1.0174733330820789
0.5881336970033446
0.284011133129825
0.020027627540406823
-0.1642167370143122
-0.2405426410864649
-0.24921713264083256
-0.2635954733835448
-0.37529364845891094
-0.5003157153252434
-0.6334842597419206
-0.7632079500157786
-0.8640016442126092
-0.9181361293211971
-1.0040893290247754
-1.0900030472724145
-0.9036445176839161
-0.042106563019301976
0.4220132772136942
1.1580673265373136
1.360769554736272
1.1903419386980063
0.8591962472189566
0.48965372253270917
0.1838533481586198
-0.02421175779669721
-0.1232205215150229
-0.11460852164997787
-0.1076580297309882
-0.1809668565507699
-0.3310113232090066
-0.5766505763393232
-0.7159246777113425
-0.8411019934541097
-0.9379311418516969
-1.0104368893812268
-1.084220391234298
-1.1553053920301108
-0.8128731155786105
0.2355941903903673
0.9747308075207728
1.5462917475975877
1.4467592131661688
1.1385984813147583
0.7670577987579238
0.2727736022377476
0.09081429464498678
-0.07867675611154591
-0.06774521120927093
-0.015413006
-0.015413006
-0.04027118510535026
-0.25525773924428996
-0.40314779368433795
-0.6430682322963034
-0.8284636331626147
-1.0170957979878408
-1.125272097070155
-1.2530904275027819
-1.2802851169086082
-0.8014169878238293
0.2195972416723403
1.1834129448244552
1.668590658574294
1.5474517603349063
1.1669103335229911
0.7222283505933461
0.2807757125164613
-0.0046533294591849655
-0.13990640054518036
-0.13341624713020714
-0.10205858908096282
-0.12240270155488929
-0.2527226918059963
-0.4560878910836152
-0.6778340351070757
-0.8774215296221815
-1.0977836166455517
-1.2989640858766118
-1.4603215760636372
-1.5614365438403894
-1.5163668842996545
-1.1444144450251508
-0.18933267147477484
1.0504699569191127
1.8400284777128517
1.9757011762240662
1.5949307647731088
1.0775094768859366
0.5847900903666136
0.1911786454249999
-0.07887325850880425
-0.1953359637220895
-0.16807474801562844
-0.1105787211190204
-0.18762000887839625
-0.3598138701594749
-0.5586120788884202
-0.7667564651607381
-0.9827149811246025
-1.1976024950402457
-1.3563196623023397
-1.4948547822861715
-1.5720319513138525
-1.507384428676984
-0.5103519207301528
0.5924643353861687
1.5197475788931964
2.0218039434010486
1.7308730331873925
1.1563606185230673
0.5651823025268303
0.12548982245911644
-0.21238744395374676
-0.203775444088701
-0.12758593793635192
-0.08727181825289358
-0.12246941350670672
-0.3037012254156171
-0.4925796646765511
-0.8581497982006137
-1.0750372510406085
-1.3046478470998775
-1.4773203087479931
-0.7494141223404217
0.022176024385233695
0.7502225381273273
1.4782690518693418
1.7176998499445357
1.0136670161967516
0.8354213133560069
0.6571756105152431
0.4789299076744984
0.3006842048337346
0.12243850199299
-0.05580720084777391
-0.14747986
-0.11641550705608093
-0.156352855597817
-0.20674970269623774
-0.5308352583764626
-0.8574209161294433
-1.2442324139036038
-1.4402678968604763
-1.651433576711012
-1.5872924997218834
-0.7490949353069889
0.47076270424790684
1.9044027335651892
2.310730548033847
2.0855083254581435
1.6098733633966211
1.0403320285216375
0.4619775575948701
0.044487665246403504
-0.05975099857745427
-0.08770224532476865
-0.17787390377226364
-0.2923895855089201
-0.4743452928397313
-0.7499515259497512
-1.1700563429066877
-1.5043351888202614
-1.745383685281121
-1.914454684924374
-1.857946080718849
-1.0222184096710771
0.28215444619764846
1.558985300234174
2.239564259987718
2.1235807671045746
1.6058385859465143
0.9511871435336381
0.4336816437572743
0.10482928855968165
-0.015413006
-0.015413006
-0.015413006
-0.026915299501738967
-0.09740215291821042
-0.24668847214501186
-0.4571517673544732
-0.7117954110421458
-1.027027056647839
-1.2485049374271067
-1.014874736671164
-0.1549162342600907
1.025719649979213
1.8606175379300194
1.983817280542336
1.6323006324210827
1.1978083237499855
0.762813609355052
0.3806863262024986
0.1262977314891
0.050620418
0.050620418
0.0199504303638831
-0.07423157632759045
-0.26401596879016154
-0.44919106542842535
-0.5643677411557708
-0.695275663934881
-0.8710383667246449
-0.990180163521655
-0.6550602301230861
0.2714042986893138
1.318280915830258
1.9622873885064145
1.9709713593964817
1.6055970905048116
1.067627820319857
0.5665315681366951
0.2731178247635307
0.08630497709217388
-0.0058451813177444415
-0.0365679830697236
-0.10681237891324165
-0.2596346165109058
-0.5062251935755334
-0.7248738442450722
-0.9082231519259679
-1.0457983345180693
-1.193986022845762
-1.4651499075900174
-1.511049002934735
-0.831680990003351
0.39317821678983855
1.583190734439031
1.9826664405030558
1.752818319712021
1.2403582992784035
0.6807784061750732
0.28737738962048487
0.02633231304937511
-0.018195057320966032
-0.015413006
-0.015413006
-0.04736687279386896
-0.20681431053493438
-0.3881410306046398
-0.5761938101840299
-0.7749492875527734
-0.9279379681577555
-0.9970892756127223
-0.9423683668219464
-0.5244532776188675
0.3943833281049874
1.1826913313766136
1.8486213200950012
1.7998043925455538
1.3234855134665788
0.6934931803909091
0.16475090229123185
0.0035692753296823476
-0.015413006
0.06582866321416372
0.11166892391994289
-0.0018845875640874782
-0.15693989420061635
-0.37715331513829675
-0.6405393592890858
-0.8866399850704918
-1.0346348230779778
-1.0683562898703178
-0.8680586830494931
-0.04470293402166903
1.0230108384199224
1.7721247060580925
1.8817104193488627
1.5073858430518052
0.9874590715328215
0.49758484347265663
0.030811961557319738
-0.12320443953115787
-0.1479749144782565
-0.1786475176700009
-0.12991424614085495
-0.1858302373304149
-0.37411329015116057
-0.5581656342137509
-0.7612509547884784
-0.9773373752255923
-1.18405717439099
-1.2693442066771015
-1.0035311491242442
0.1296707056842677
1.133293815439766
2.001227398524484
2.0086594326330265
1.6255199062288574
0.9912122214149947
0.4341351994763303
0.043350654952838234
-0.15926317967232334
-0.20855797924300465
-0.18956207599902214
-0.19068598435410322
-0.2583320325607181
-0.40943256354418217
-0.6278525123926739
-0.8993188670395434
-1.10041731493174
-1.2180374480388396
-1.2368746872266498
-1.0321760486644218
-0.32760511962403394
0.5927256775624759
1.4950605848922964
1.8846329347152937
1.705318482270581
1.1577642288564869
0.552634522654352
0.18291638062290164
-0.01413278351990853
-0.0682397459999999
-0.05797877736353678
-0.03577757088998381
-0.09854018679476609
-0.3165219282598746
-0.6065004711475861
-0.8923843003347897
-1.1013802367997254
-1.1921896141952335
-1.2035775858379498
-0.9798820006593743
-0.40434093339213356
0.5095952216140571
1.3734265007953148
1.7117147986391033
1.521795940827134
1.050716672011194
0.5576876376538589
0.2000166493909731
-0.0054585909672024355
-0.06661603256719381
-0.09132687951677572
-0.11572271196403822
-0.18313667852129903
-0.41063144264465573
-0.7176526281362894
-1.009495055806736
-1.2168799638873207
-1.3409718743286063
-1.4583647496805634
-1.4486336103023096
-0.8939672983725582
0.1573985189332664
1.3619096703368299
1.8789805098918175
1.7448921200589322
1.2941066005169861
0.8319152382040931
0.3670220410242637
0.071292236808569
-0.010117622604912361
-0.015413006
-0.015413006
-0.0839640034538599
-0.21746725496392907
-0.4514817842329383
-0.6701172450365537
-0.8761858030725009
-1.04383284331372
-1.1764479885189019
-1.2924177251932656
-1.108432103270124
-0.3924755283340772
0.49338555200130335
1.4070088626605362
1.6605233079165878
1.3582471512953327
0.8918495417778274
0.43146844348671287
0.08961043505149466
-0.10183260628544309
-0.15510203049895532
-0.1091684944850696
-0.094653115
-0.19528716457017628
-0.38960098646888885
-0.6333422708298669
-0.817113276874958
-0.9828224292089094
-1.1327524350173364
-1.2510071556208051
-1.1483463049666949
-0.6270702304158979
0.5845783904376207
1.4362738283129206
1.737004948547781
1.6525023555362894
1.2241291323036956
0.6707082896816625
0.39567365856520464
0.12737196362960942
-0.04450707889013128
-0.12193239000337
-0.08596857887681925
-0.13753745270376244
-0.3001240975486982
-0.5616407939920458
-0.9215612405406912
-1.0340000945390986
-1.0975333504066305
-1.1746234212419984
-1.2948387883197539
-1.2412321064637797
-0.7173756021435609
0.4122099824208078
1.558812421723892
2.016109234753548
1.7664360834987025
1.297702420805475
0.7236674073683699
0.31443864489443074
0.07152867288816342
-0.015413006
-0.016038376464368065
-0.03569691811009479
-0.15556652496912476
-0.3346037864533051
-0.6140038873205619
-0.8608016669890382
-1.067511780020588
-1.2648868488506946
-1.402960618317258
-1.5279125309521822
-1.5476230932537727
-1.111443115250427
-0.10657805800346554
1.1492452039026237
2.003867729496614
2.061905609573453
1.6838896397135397
1.1927310459263958
0.761618947919981
0.2839463375915028
0.008930725070728562
-0.07183682543964139
-0.03434875009954325
-0.02664607832038437
-0.12873703729554925
-0.4827483352538149
-0.9134601677036406
-1.2390205567303252
-1.5654712091996579
-1.8263490256978063
-2.0606911232583736
-2.1888541991669324
-1.9734251253019786
-1.1528890898874815
0.22651128722228125
1.4180733105129493
1.8806172418945375
1.661100250549118
1.206869026354443
0.7134759773867313
0.2117632144483349
-0.12727281591357398
-0.26430712959375074
-0.2329916996742215
-0.17959925242858918
-0.2153763723023387
-0.31250031249552274
-0.47180874330291567
-0.6873610392109304
-0.94129316463767
-1.1788459221294931
-1.360997621359724
-1.4901803551628605
-1.473596072956332
-1.0339816374186497
-0.013333594976774554
1.171249203099205
1.9255429027807172
2.1092947288301684
1.798547744985175
1.143112324310346
0.6139838096275754
0.07404538267637362
-0.2290733062130355
-0.2949987030973739
-0.24761071835941761
-0.20242538750291628
-0.27163312545971163
-0.4405770309015199
-0.6794147084781087
-0.9828768972330467
-1.2273845094979698
-1.4611182600561483
-1.6561846179273918
-1.5071733407474108
-0.7256227644285413
0.5562152823973116
1.579235440354125
2.025862765195177
1.9311869793461152
1.4510201303430599
0.8208381364093439
0.2838049044638773
-0.10866801531197273
-0.32088469834488825
-0.24820776212908185
-0.17116744583930266
-0.15742630843463598
-0.3103180826016353
-0.5059764474669792
-0.7773258011415385
-1.0589390533664547
-1.3004574950592673
-1.535815288325319
-1.7132973767980577
-1.339415403698706
-0.297868966602708
1.2235021112463278
1.9964947840617948
2.0930977813969442
1.7403121588352644
1.3135872329530887
0.7469327937514041
0.08964204580657054
-0.15527498309012489
-0.2113619080170589
-0.12355853617397278
-0.16167281724731278
-0.19662515589295634
-0.3778841085897039
-0.5524755332869902
-0.941487607238845
-1.2077934328699995
-1.4115602097280344
-1.6678279921525547
-1.729637573219826
-1.1738781964382117
0.2160708040733152
1.6367874805063436
2.060713969353677
1.8637440442149824
1.5159286514420538
0.8085016936644691
0.20116825855454556
-0.028595776718244224
-0.14747986
-0.14319892203690943
-0.09868484753811647
-0.15663850468106782
-0.2594165712045086
-0.4415379236876411
-0.6879035750441892
-1.0079953940887787
-1.2824312649805683
-1.4807048207707811
-1.6479672009032391
-1.4495200740719323
-0.31993001984097
1.2469402624254866
1.9603590622016003
2.121262589394012
1.7272172608065726
1.245297628302843
0.8418417196968038
0.25908980753857525
-0.009841063049797686
-0.07604666188707501
-0.026754698920411307
-0.029404660030614177
-0.09777522172661161
-0.23408530244126857
-0.3958121911042178
-0.6937754726204044
-0.9592108109466162
-1.2166523430039535
-1.4304498169853417
-1.4943276289587724
-1.230886094806304
-0.2680603850948416
0.9047925684180024
1.9165186140719164
2.1935557488131474
1.8907415282235394
1.430593779474065
0.9021590020123817
0.3501038400859523
-0.01625112440530995
-0.13086168786317887
-0.14747986
-0.1649199290592798
-0.23086248739287268
-0.38105466115600267
-0.5457775748008812
-0.765371124689905
-1.09064489845682
-1.299605988682846
-1.4608423727416808
-1.6023824825337356
-1.6457710116013156
-1.0482577739409789
0.26440921078102214
1.491982194935015
2.0257275109639914
1.8219725349720965
1.354432181298344
0.7826086700950272
0.22614438413561663
-0.05798763808371875
-0.10823835009855526
-0.018949086652756755
0.037413733
-0.02020883466069718
-0.19432573275220666
-0.3990062287124152
-0.6188570257394179
-0.9380778496685221
-1.2212343338001006
-1.4287276311007242
-1.5011651
-1.1424621686234242
-0.18795778512330952
1.128312505139725
1.945970035481857
2.1609771285181036
1.8307402919957423
1.3218325724692979
0.807941247356744
0.44558857921970363
0.19036293661999382
0.06534668016674536
0.050620418
0.019873521920537797
-0.07350201292419246
-0.33657292580445297
-0.5868488819873685
-0.8151745895728911
-1.0121791911748979
-1.15611101697816
-1.2204409346741294
-0.8635219222084514
-0.05225544776448332
1.2119912112067524
2.1932532166908323
2.3700922385560994
1.9568382072612467
1.34400652145898
0.7624100686244196
0.23116277815023706
0.003301744762299247
-0.015413006
-0.015413006
-0.057289554723240696
-0.17025503728781538
-0.37078143523102614
-0.5627225680019196
-0.7345307471997067
-0.9597933311518314
-1.1930430355522403
-1.2985268630746596
-1.2634967693719026
-0.6629927082372287
0.3739661775399562
1.5348662724270024
2.117200210513352
2.0543293461668184
1.6247318402893771
1.0893455213595287
0.5539432529908875
0.06008723542464872
-0.1816019156815353
-0.21239998890834466
-0.19317835504654313
-0.18356509578967725
-0.317290343900427
-0.37989859696451067
-0.5675945803815946
-0.7173840610485027
-0.9607325384686745
-1.095356460495383
-1.1951421707370153
-1.1871928793133224
-0.6849662774767713
0.426520500638098
1.6183674574188693
2.095129718158891
1.9731832678406067
1.4786086289177716
0.9504884910700933
0.45873937196034736
0.08706789015853279
-0.011559679742367159
0.025795763246068658
0.04512814828625942
-0.027219768635554975
-0.21558388002728315
-0.4648162297732047
-0.7385158845799131
-0.9006809588454829
-1.0654066441629273
-1.2267014419992903
-1.3177917572783986
-1.020890760105982
-0.2910650815249073
0.8614393555744875
1.8119792972876385
2.119832243607666
1.8421556070863545
1.3193815267834599
0.7725446613487847
0.35537914997048226
0.1266935992779957
0.05734714227199361
0.08179230230632084
0.02101030766557115
-0.08269170435303438
-0.2478748077270691
-0.5118851948391936
-0.7563767541676945
-0.951123745465304
-1.0719478
-1.0900010559255087
-1.0602405389045033
-0.7986337706790809
-0.30332141358677966
0.8564451051934353
1.836437995625798
2.129228199262077
1.7861966712470363
1.300831698825884
0.8375828709227252
0.35543310008412154
0.08980464169222106
-0.015413006
-0.031480057729554506
-0.10927107590464011
-0.25756552163115515
-0.47537801822888454
-0.7674889599809278
-1.039076438916602
-1.2754929985931913
-1.423299095440837
-1.4534199616399937
-1.3921696633698084
-1.1549145154405844
-0.5059137784833889
0.6176258682505557
1.60635746244244
1.9212197599651941
1.6407997595984343
1.152006201486996
0.5839614284661543
0.11804049455768562
-0.11851062607201973
-0.20195768718528911
-0.17759622674578324
-0.16771686124073495
-0.27782140365901165
-0.5093133821088828
-0.8106093375128786
-1.1409287490094422
-1.35748850305422
-1.4511116203952668
-1.431128852465471
-1.3360295519557945
-1.1866301311912708
-0.7053811483629202
0.31421234213743005
1.4005150258128092
1.8903390411515533
1.8644400558197733
1.4480200108869654
0.8932951054750962
0.32825167425203944
-0.07900027667193446
-0.22231521348996225
-0.16251587042532498
-0.05067282594244295
-0.09360259943554816
-0.2100154375527445
-0.445192588765027
-0.8035282083113545
-1.0659132098843098
-1.185116530365044
-1.232541426138872
-1.2091651976795654
-1.048546811719271
-0.38135567835250617
0.687672822526922
1.6821147065425717
2.075850447517674
1.8820627986069174
1.4497466702401123
0.916708829270251
0.43101132454414726
0.004083499288753845
-0.13707339987976863
-0.09798986769278589
-0.0823943433096622
-0.15402230074497028
-0.36355067256260354
-0.6089971850955962
-0.8992532584181956
-1.166759266983215
-1.2217438875567592
-1.3030355335473442
-1.3521834901744825
-1.2861875989855724
-0.432460876854903
0.5246254770198381
1.7480805084063202
2.1893227631864884
1.9402822490056408
1.4380556988319098
0.8153182871696208
0.37600187685468217
0.01292896340732913
-0.1326624215529938
-0.09878453913789087
-0.09467728566444875
-0.2255814540612139
-0.40367433589156415
-0.6236622707821273
-0.8706913325949444
-1.1229066507699592
-1.310697511607875
-1.41971036954112
-1.4626707904542307
-1.2329569233482673
-0.3566112915858569
0.9104108105711245
1.9984251221958715
2.251475877274421
1.8456204053276324
1.1529679626539435
0.5607054983210206
0.09826067092991239
-0.0682397459999999
-0.06056321982908873
-0.026507228493263403
-0.11869564284635976
-0.30388089967048004
-0.5338398644495126
-0.7476614559182624
-0.9129754894733633
-1.0631686579937374
-1.2380834853307934
-1.3684898644291692
-1.252157591459287
-0.5763327830193387
0.7009822143676074
1.6055821404622534
2.1370080915099043
1.9574557153853804
1.3502988151851585
0.7571002047157543
0.2098636049519895
-0.04260087049816933
-0.12199041204252907
-0.06907237882222025
-0.05881173767216655
-0.1510823936027731
-0.3806105917564901
-0.6530076459303209
-0.9795933114927919
-1.1584815889897848
-1.2713767761645771
-1.2801938396363568
-1.2733250364990247
-0.7695418275759809
0.17575793099018883
1.3889064613515016
2.2313045822753437
2.1689151179598474
1.7509832058183745
1.2095101122447023
0.7209925080470609
0.3240467508703829
0.025001824556167403
-0.009349412682201732
0.040231866136729744
-0.02694713496829458
-0.25187634331774
-0.5061041732405602
-0.7683355694737014
-1.0553109240724414
-1.2686319319717465
-1.3980898558849657
-1.441462784796382
-1.1217635857858028
-0.27806313212943323
0.8362312103658546
1.6402495225946252
1.950196984363926
1.5665756787652372
1.0261593695492435
0.5460395186123426
0.15555395876712744
-0.05316327391167671
-0.081446431
-0.081446431
-0.12560165830729153
-0.2793959924687479
-0.5234866012268187
-0.7932797456223779
-1.049184017493655
-1.28738968331141
-1.4107677962429896
-1.4606543194604191
-1.4294583306943915
-1.1716139967024
-0.25606749246354443
0.8391245677335268
1.7650038108738197
2.160468381017596
1.7562219702917365
1.1051768584400816
0.643723848757502
0.19016391003903854
0.002240912717723785
-0.015413006
-0.015413006
-0.05172378762015684
-0.21085824325270472
-0.47005528218677006
-0.7624134004690697
-1.06453452389955
-1.1940984949358764
-1.2640139861367028
-1.213815535689548
-1.2972460254563198
-1.1250725452256518
-0.33979789934049687
0.9214820261158114
1.8389601750366245
2.219533418151056
1.935316667519169
1.421825915369999
0.892162826053905
0.3778034905356458
0.1116079971201657
-0.00969990924174089
-0.015413006
-0.015413006
-0.09096314314174891
-0.36392862631424744
-0.6474474699457269
-0.9452208561527721
-1.1796054648750987
-1.2700481
-1.2700481
-1.2700481
-1.263197312571862
-1.135634270667557
-0.24067960331968544
0.9569156161953083
1.9904176828003148
2.2271965622779097
1.8681483296082324
1.335172858372695
0.7579471076071636
0.2514966978558371
-0.024744343536760825
-0.11935461532892155
-0.10940888043435545
-0.13963431574332735
-0.3334154572726711
-0.6508290810365697
-0.9071514098482785
-1.0621173337178877
-1.2020276130693455
-1.3305276207587833
-1.4603229302303566
-1.5341818
-1.5341818
-1.5061049579893546
-1.253757956140335
-0.5008787261074603
0.7207252222340734
1.8981996928803162
2.4807340359157433
2.231501717407863
1.6631973353985727
0.7664063724192051
0.26978305865435753
0.0027925510103177682
0.0062980428249950655
0.10110091178397088
0.17237710556959535
0.09241145010826701
-0.13973517033052335
-0.4526035085154828
-0.7759779250671643
-1.0116954078118199
-1.1738153155136837
-1.3471309061154142
-1.5644028602126427
-1.7199436426585535
-1.6250911592542294
-1.0023328953815904
0.12381577197147553
1.3426699437726775
2.1160999531908264
2.1151733890272393
1.586487336582637
0.8982374704453522
0.3567939153120863
-0.0520670174960738
-0.252386107361819
-0.24812898752593843
-0.18316028620636762
-0.19790271783096408
-0.3293529398503144
-0.5124453133805108
-0.7564821397245893
-0.9705725371137609
-1.1678581574188989
-1.352932533405259
-1.456186890102892
-1.4945617
-1.331519926193225
-0.6885257509566352
0.45397327356252254
1.7725760457479902
2.293709818236334
2.0813772812306626
1.510839818307311
0.8983364171466164
0.29178150795867397
-0.12957599476227205
-0.3084030118567601
-0.28395878688812237
-0.1874205889187749
-0.21595460634888775
-0.3311323589575538
-0.45828947968927497
-0.9291397752029862
-1.1386562707958103
-1.076799027879874
-1.0149417849639244
-0.9530845420480014
-0.8912272991320516
-0.8293700562161153
-0.15816955962839047
1.186306544647751
1.8958606160530185
2.11561673999035
1.069341220940915
0.5345261427188835
0.30760592422244154
0.08068570572590117
-0.14623451277058996
-0.19337496011284597
-0.052831497826034864
-0.0014685798740452314
-0.02355440503404508
-0.24215444416568632
-0.39172749556099157
-0.5413053709533286
-0.6761342786752138
-0.8307955748214146
-1.0539319158639906
-1.061605228155843
-0.6265129084124605
0.43668192533236144
1.5596044554473267
2.1511306603294305
1.9442598657759267
1.4167967557658345
0.6906043321067314
0.04347910831821178
-0.24415033530870126
-0.3379464595118424
-0.2830434343354741
-0.18046124353074064
-0.28389921557966913
-0.42089188565260593
-0.6794395318379055
-0.8765472154143696
-1.0182578591851943
-1.1455295335676852
-1.3303180102406453
-1.2845712853338696
-0.5065084636462027
0.7130953238183813
1.7295341946806424
2.1028731644465974
1.7890222507335458
1.4017732748334009
0.8111106827898105
0.2657784288806443
-0.00031694030165679843
-0.10393563268408407
-0.0755967691989628
-0.017820983623911907
-0.06414400564577244
-0.24639582784876787
-0.4949570723984787
-0.7443928896612136
-0.9370620889579564
-1.012378040742691
-1.0404873163805228
-0.9283030285367191
-0.43217136781813237
0.7046159750975851
1.7124343738691397
2.03441237902858
1.8151761826933108
1.344268677556729
0.7964025291573135
0.31388859836152416
0.008666046527347744
-0.0682397459999999
-0.05423885668597019
-0.030109823480178967
-0.12095636684072558
-0.2984008222998516
-0.5425644775088041
-0.7807639158173015
-0.924950314588962
-1.0659052926849908
-1.1404323298100232
-1.091249573323223
-0.6742159281378419
0.22001331156014703
1.0795391411388524
1.6825925189395723
1.7674280970659757
1.4300009416217065
0.9731082620462762
0.46906831959899975
0.15696115016965417
0.07515607974372855
0.12805238833192276
0.15721400247771122
0.09763227442293887
-0.07431639572352118
-0.28537840860705765
-0.4995014224902473
-0.6904948440128457
-0.8619416039802231
-1.0336781005434
-1.0879990351852131
-0.7565741362461325
-0.03304776646283247
1.0242854205435008
1.8015023178961955
1.9946693744405257
1.6279822387422918
1.1475569009621094
0.7297525276691282
0.3951099047172398
0.17258436310778474
0.06318576514344054
0.022208691818713263
-0.014155562021229593
-0.09771163166440351
-0.2708245805430222
-0.48989692853893885
-0.7457359191478431
-0.9711988707967723
-1.1171123993823318
-1.2162507733471202
-1.2353539137281864
-1.0022904384367342
-0.09375584654988534
1.0813105002777048
1.7347218649778875
1.9086021084912967
1.6786681449934615
1.2223014832337113
0.7122750145608874
0.30669173028647007
0.09179040883924486
-0.0040003333013917675
-0.015413006
-0.023113182362056003
-0.135812824283957
-0.36602477020363033
-0.6494264175400148
-0.9096779598893164
-1.1151614633835192
-1.31824973757866
-1.4256472072023563
-1.4617661454527349
-1.356483202500267
-0.7206115047317011
0.27774343208265506
1.3278450260920676
1.7993215279372863
1.5979082689705002
1.0959367605007495
0.6320561735054981
0.10563684724245537
-0.11381467796116915
-0.2611634928374176
-0.24502271965465117
-0.16016051892001654
-0.24006179373867198
-0.37487464120793657
-0.590425461956217
-0.8060667272932236
-1.0402077295027465
-1.2564096252020742
-1.4895447415809246
-1.5972784819984032
-1.5633522473720356
-1.2614492430309776
-0.3548525829422223
0.8145536449324221
1.8396390140603036
2.013084729561807
1.6311885320003205
0.9824057667535576
0.3779143167010744
-0.07824917477841731
-0.3245867292588597
-0.41161355
-0.41161355
-0.5246362584023704
-0.7463824024258927
-1.0209553260817272
-1.2427014256599482
-1.3095022388403963
-1.2968310162186745
-1.1398956979087116
-1.091264154139938
-0.8876203633252564
-0.6411555904708306
0.18579235506410152
1.21432413573207
2.0563293990111573
2.2572922933366857
1.8806737888048108
1.2820416478618115
0.7351712806927606
0.24048257467277923
0.009517371024992016
-0.015413006
-0.015413006
-0.02899822920748596
-0.16127349272988784
-0.44813168379597196
-0.7373665416410587
-0.9677246796724064
-1.1197453273108515
-1.2100662507885969
-1.2543902628319898
-1.251094551787554
-1.0362070456814443
-0.2520923478394721
0.7808287472036641
1.7372121603298902
2.149763125955118
1.7983011962244273
1.2208525404470143
0.592494737295133
0.032947742736949115
-0.4373087871939544
-0.5344781060953213
-0.45162970645060485
-0.41723326537686045
-0.4999550256724956
-0.6594930321752024
-0.8729223293899655
-1.1207047772382976
-1.3097562290827418
-1.4092826342242508
-1.5011321740016812
-1.6042698763604022
-1.4873274739171396
-0.812865588783415
0.36369227159647133
1.7519742975777106
2.22176910241495
1.946415548722147
1.2735964895150358
0.5311619328508733
-0.12951267641524325
-0.387911542659762
-0.45013110545948715
-0.3918522420472122
-0.26033157716245736
-0.29467644423075157
-0.4587725966092093
-0.6969213670925467
-0.8565281962472464
-1.0957000251156608
-1.2961981600207186
-1.4651475551135464
-1.4098734833084567
-0.9806793707439524
0.010475466826075364
1.5526540406777491
2.23397330918676
2.0323822978426818
1.3769013508143493
0.78266672157062
0.25114962301979143
-0.29975007649141117
-0.4891117521566084
-0.48398252662816565
-0.4267730580061666
-0.45745890767593594
-0.5810492127218692
-0.7304061971439626
-0.808964789350474
-0.8795675271312539
-1.0462727841142387
-1.204882776631345
-1.3535894688490289
-1.178210211961787
-0.3463420861308495
1.030398431519708
2.068420561918039
2.3407641273426503
1.9254438876935729
1.3081243226757127
0.5908160937501977
0.0705321484251577
-0.2572164054647582
-0.35456719638589596
-0.29997021143960984
-0.23668608431869181
-0.32218113489075517
-0.5271690773594989
-0.7301683845913002
-0.9030683040943336
-1.0483176433435466
-1.1991271042557161
-1.3735631544630293
-1.4322862527600106
-1.1200506369483891
-0.1487735385374439
1.1114234818190698
1.9684496475043602
2.009572322174628
1.539279012782585
0.9766330706059236
0.4319193030913243
0.0035851608027006043
-0.16307430920369248
-0.09914906482074035
0.008605153053424575
0.03801950697879282
-0.035186068729997085
-0.20500559621252729
-0.4861908778778168
-0.6790356120797261
-0.7840732636673217
-0.8520413565530126
-0.9261581390097071
-0.8318792935301174
-0.3456429909209855
0.5010333399494965
1.552227933603937
1.9740268946039468
1.5883236063539268
1.2187282581405445
0.5927847331340647
0.034991806740747686
-0.18811096739587566
-0.1916543016803914
-0.07142897039893537
-0.018967197678192906
-0.1176961535722477
-0.2826911995476808
-0.5493046717629393
-0.8254324930865549
-0.9456285657731666
-0.9978539506574972
-1.0148484857281799
-1.0112462464597947
-0.6671101744019576
0.31191620712385454
1.4279688422637022
2.023802773757151
1.8877069444517043
1.4244624227458293
0.8979504925326175
0.43880467690781344
0.13798217512783575
-0.005236748020592812
-0.015413006
-0.01906813279318554
-0.05424042710259755
-0.1823481808720923
-0.3714833397688984
-0.5705828003501693
-0.7939805719168334
-0.9266754818818411
-1.0864026885558582
-1.1135752857880485
-1.018941984259883
-0.6082911838520603
0.29872710954396997
1.287012984222209
1.867940036956122
1.8724616956360636
1.4189101968127558
0.8659388002689693
0.33546670917243476
0.014482706841752
-0.10529269111767546
-0.10865412522843998
-0.028504546111850656
-0.0401622327041123
-0.14926298774339342
-0.3174223647116937
-0.5176175479471679
-0.7884171369156936
-0.9159484823675391
-0.9741030098558868
-0.9742005990052289
-0.9598178561490216
-0.8111755091647133
-0.1889538763068233
0.7820299501662502
1.6491604701996154
1.9087345072229902
1.563375549399519
1.041103362041843
0.5460399911972493
0.07640063812625941
-0.2297068994072756
-0.2652213623540068
-0.1693547996407029
-0.09471211853053266
-0.17461585777166178
-0.3483519262651004
-0.5659459073189991
-0.8076680771561695
-1.019715036278072
-1.1499392936882094
-1.196438352514447
-1.178040555158615
-0.9946392553160504
-0.37312954058724257
0.6566049052001913
1.700583298563136
2.0598750599612794
1.7992928350673782
1.2542901208846486
0.714935925612106
0.233916626278654
-0.08175306046475586
-0.17069579391627288
-0.10568855010452963
-0.06322822959654122
-0.11711792316974795
-0.3085662335643673
-0.6179602524341229
-0.9416200955324735
-1.2195838695729486
-1.42426943529664
-1.5196659036241893
-1.5341818
-1.3864420757135878
-0.8258833390880447
0.09386193010699007
1.3812960498738382
2.3173603790317934
2.1792943459900016
1.7097632671778058
0.9717868051872363
0.37427708808889826
-0.05392151789917138
-0.23957932041053742
-0.24152708409408438
-0.12921891470093394
-0.11938278519360634
-0.3335830745006626
-0.5613439637799901
-0.8373503728820334
-1.1079174621440209
-1.2396295074556607
-1.2680902803406569
-1.3437648418418013
-1.4404427148701568
-1.2916388358505433
-0.41978077365192035
0.8202463252762398
1.887005206707184
2.250422491305113
1.7868840822688952
1.144798263169375
0.5612558142452574
-0.012869051144641338
-0.21228586972187238
-0.27951062390065545
