239.80104080484372
239.45801271439552
239.1149846239473
238.77195653349906
238.4289284430509
238.08590035260266
237.74287226215444
237.3998441717062
237.056816081258
236.71378799080978
236.37075990036155
236.02773180991332
235.68470371946515
235.34167562901692
234.99864753856872
234.6556194481205
234.31259135767226
233.96956326722403
233.62653517677583
233.2835070863276
232.9404789958794
232.5974509054312
232.25442281498297
231.91139472453474
231.56836663408652
231.22533854363832
230.8823104531901
230.53928236274186
230.1962542722937
229.85322618184546
229.51019809139723
229.167170000949
228.8241419105008
228.48111382005257
228.13808572960434
227.7950576391561
227.45202954870794
227.1090014582597
226.76597336781148
226.42294527736328
226.07991718691505
225.73688909646683
225.3938610060186
225.0508329155704
224.7078048251222
224.36477673467397
224.02174864422577
223.67872055377754
223.3356924633293
222.99266437288108
222.64963628243288
222.30660819198468
221.96358010153648
221.62055201108825
221.27752392064002
220.9344958301918
220.5914677397436
220.24843964929536
219.90541155884713
219.5623834683989
219.21935537795073
218.8763272875025
218.53329919705428
218.19027110660608
217.84724301615785
217.50421492570962
217.1611868352614
216.81815874481322
216.475130654365
216.13210256391676
215.78907447346856
215.44604638302033
215.1030182925721
214.75999020212387
214.4169621116757
214.07393402122744
213.73090593077924
213.38787784033104
213.04484974988281
212.7018216594346
212.35879356898636
212.01576547853816
211.67273738808993
211.32970929764173
210.98668120719353
210.6436531167453
210.30062502629707
209.95759693584884
209.61456884540064
209.2715407549524
208.92851266450424
208.585484574056
208.24245648360778
207.89942839315955
207.55640030271135
207.21337221226312
206.8703441218149
206.52731603136667
206.18428794091847
205.84125985047027
205.49823176002204
205.15520366957384
204.8121755791256
204.46914748867738
204.12611939822915
203.78309130778095
203.44006321733275
203.09703512688452
202.75400703643632
202.4109789459881
202.06795085553986
201.72492276509163
201.38189467464343
201.0388665841952
200.69583849374698
200.3528104032988
200.00978231285058
199.66675422240235
199.32372613195412
198.98069804150592
198.6376699510577
198.29464186060946
197.9516137701613
197.60858567971306
197.26555758926483
196.9225294988166
196.5795014083684
196.23647331792017
195.89344522747194
195.55041713702377
195.2073890465755
194.8643609561273
194.52133286567908
194.17830477523088
193.83527668478266
193.49224859433443
193.14922050388626
192.806192413438
192.4631643229898
192.1201362325416
191.77710814209337
191.43408005164514
191.0910519611969
190.7480238707487
190.40499578030048
190.06196768985228
189.71893959940408
189.37591150895585
189.03288341850762
188.6898553280594
188.3468272376112
188.00379914716297
187.66077105671474
187.3177429662665
186.97471487581834
186.6316867853701
186.28865869492188
185.94563060447368
185.60260251402545
185.25957442357722
184.916546333129
184.57351824268082
184.23049015223256
183.88746206178436
183.54443397133616
183.20140588088793
182.8583777904397
182.51534969999148
182.1723216095433
181.82929351909505
181.48626542864685
181.14323733819865
180.80020924775042
180.4571811573022
180.11415306685396
179.77112497640576
179.42809688595753
179.08506879550936
178.74204070506113
178.3990126146129
178.05598452416467
177.71295643371647
177.36992834326824
177.02690025282
176.68387216237184
176.34084407192358
175.99781598147538
175.65478789102715
175.31175980057895
174.96873171013073
174.6257036196825
174.28267552923427
173.93964743878607
173.59661934833787
173.25359125788964
172.91056316744144
172.5675350769932
172.22450698654498
171.88147889609675
171.53845080564855
171.19542271520035
170.8523946247521
170.50936653430392
170.1663384438557
169.82331035340746
169.48028226295924
169.13725417251104
168.79422608206283
168.45119799161458
168.1081699011664
167.76514181071818
167.42211372026995
167.07908562982172
166.73605753937352
166.3930294489253
166.0500013584771
165.70697326802886
165.36394517758066
165.02091708713243
164.67788899668423
164.334860906236
163.99183281578777
163.64880472533955
163.30577663489134
162.96274854444312
162.61972045399492
162.27669236354672
161.9336642730985
161.59063618265026
161.24760809220203
160.90458000175383
160.5615519113056
160.2185238208574
159.87549573040917
159.53246763996097
159.18943954951274
158.8464114590645
158.5033833686163
158.1603552781681
157.81732718771985
157.47429909727165
157.13127100682345
156.78824291637522
156.445214825927
156.1021867354788
155.75915864503057
155.41613055458237
155.07310246413414
154.73007437368594
154.3870462832377
154.04401819278948
153.70099010234128
153.35796201189305
153.01493392144485
152.6719058309966
152.3288777405484
151.9858496501002
151.642821559652
151.29979346920376
150.95676537875553
150.6137372883073
150.2707091978591
149.92768110741088
149.58465301696268
149.24162492651445
148.89859683606622
148.55556874561802
148.2125406551698
147.8695125647216
147.52648447427336
147.18345638382516
146.84042829337693
146.49740020292873
146.1543721124805
145.81134402203227
145.46831593158407
145.12528784113584
144.78225975068764
144.43923166023941
144.0962035697912
143.75317547934299
143.41014738889476
143.06711929844656
142.72409120799836
142.3810631175501
142.03803502710187
141.69500693665367
141.35197884620547
141.00895075575724
140.665922665309
140.3228945748608
139.97986648441258
139.63683839396438
139.29381030351615
138.95078221306795
138.60775412261972
138.26472603217152
137.9216979417233
137.57866985127507
137.23564176082687
136.89261367037864
136.54958557993044
136.2065574894822
135.86352939903398
135.52050130858575
135.17747321813755
134.83444512768935
134.49141703724112
134.1483889467929
133.80536085634466
133.46233276589646
133.11930467544823
132.77627658500003
132.4332484945518
132.0902204041036
131.74719231365538
131.40416422320718
131.06113613275895
130.71810804231075
130.37507995186252
130.03205186141432
129.6890237709661
129.34599568051786
129.00296759006963
128.65993949962143
128.31691140917323
127.97388331872502
127.6308552282768
127.28782713782857
126.94479904738036
126.60177095693214
126.25874286648394
125.91571477603571
125.57268668558747
125.22965859513927
124.88663050469106
124.54360241424286
124.20057432379463
123.85754623334641
123.51451814289818
123.17149005244998
122.82846196200175
122.48543387155355
122.14240578110531
121.79937769065711
121.4563496002089
121.11332150976067
120.77029341931247
120.42726532886422
120.08423723841602
119.7412091479678
119.3981810575196
119.05515296707135
118.71212487662315
118.36909678617494
118.02606869572674
117.6830406052785
117.34001251483026
116.99698442438206
116.65395633393385
116.31092824348563
115.96790015303742
115.62487206258919
115.28184397214098
114.93881588169278
114.59578779124455
114.25275970079635
113.9097316103481
113.5667035198999
113.22367542945167
112.88064733900346
112.53761924855526
112.19459115810702
111.85156306765882
111.50853497721059
111.16550688676239
110.82247879631417
110.47945070586594
110.13642261541773
109.79339452496951
109.4503664345213
109.10733834407307
108.76431025362486
108.42128216317663
108.07825407272843
107.73522598228021
107.392197891832
107.04916980138377
106.70614171093555
106.36311362048734
106.02008553003914
105.67705743959091
105.3340293491427
104.99100125869447
104.64797316824625
104.30494507779805
103.96191698734982
103.61888889690161
103.27586080645338
102.93283271600518
102.58980462555695
102.24677653510875
101.90374844466051
101.56072035421231
101.21769226376409
100.87466417331586
100.53163608286766
100.18860799241942
99.84557990197122
99.50255181152299
99.15952372107479
98.81649563062658
98.47346754017835
98.13043944973013
97.78741135928193
97.4443832688337
97.10135517838549
96.75832708793726
96.41529899748905
96.07227090704083
95.72924281659262
95.38621472614439
95.04318663569617
94.70015854524797
94.35713045479974
94.01410236435154
93.6710742739033
93.3280461834551
92.98501809300687
92.64199000255866
92.29896191211046
91.95593382166221
91.61290573121401
91.26987764076578
90.92684955031758
90.58382145986937
90.24079336942114
89.89776527897293
89.55473718852471
89.2117090980765
88.86868100762827
88.52565291718005
88.18262482673182
87.83959673628362
87.49656864583541
87.1535405553872
86.81051246493897
86.46748437449075
86.12445628404254
85.78142819359434
85.43840010314611
85.0953720126979
84.75234392224966
84.40931583180145
84.06628774135325
83.72325965090502
83.3802315604568
83.03720347000858
82.69417537956038
82.35114728911215
82.00811919866395
81.6650911082157
81.3220630177675
80.97903492731929
80.63600683687106
80.29297874642286
79.94995065597462
79.60692256552642
79.26389447507819
78.92086638462999
78.57783829418177
78.23481020373355
77.89178211328533
77.54875402283713
77.2057259323889
76.86269784194069
76.51966975149247
76.17664166104426
75.83361357059601
75.4905854801478
75.14755738969959
74.80452929925137
74.46150120880317
74.11847311835494
73.77544502790674
73.43241693745851
73.0893888470103
72.74636075656207
72.40333266611385
72.06030457566563
71.71727648521741
71.37424839476918
71.03122030432101
70.68819221387278
70.34516412342457
70.00213603297634
69.65910794252815
69.31607985207994
68.97305176163168
68.63002367118345
68.28699558073524
67.94396749028705
67.60093939983882
67.25791130939061
66.91488321894238
66.57185512849419
66.22882703804598
65.88579894759775
65.54277085714949
65.1997427667013
64.85671467625309
64.51368658580486
64.17065849535665
63.82763040490842
63.48460231446023
63.14157422401201
62.79854613356379
62.45551804311553
62.112489952667346
61.769461862219124
61.4264337717709
61.08340568132268
60.740377590874495
60.39734950042627
60.05432140997805
59.71129331952983
59.36826522908161
59.025237138633386
58.682209048185165
58.33918095773694
57.99615286728872
57.653124776840535
57.31009668639231
56.96706859594409
56.62404050549587
56.28101241504765
55.93798432459946
55.594956234151205
55.25192814370298
54.90890005325476
54.565871962806575
54.222843872358354
53.87981578191013
53.53678769146191
53.19375960101373
52.85073151056551
52.50770342011729
52.16467532966902
51.8216472392208
51.47861914877262
51.1355910583244
50.79256296787618
50.44953487742796
50.10650678697977
49.76347869653155
49.42045060608333
49.07742251563511
48.734394425186885
48.39136633473866
48.04833824429044
47.70531015384222
47.362282063394
47.01925397294581
46.67622588249759
46.33319779204937
45.99016970160115
45.64714161115296
45.3041135207047
44.96108543025648
44.61805733980826
44.27502924936004
43.93200115891185
43.58897306846363
43.24594497801541
42.90291688756719
42.559888797119
42.21686070667078
41.87383261622252
41.5308045257743
41.187776435326114
40.84474834487789
40.50172025442967
40.15869216398145
39.81566407353323
39.47263598308505
39.12960789263683
38.78657980218856
38.44355171174034
38.10052362129216
37.75749553084394
37.41446744039572
37.0714393499475
36.72841125949931
36.38538316905109
36.04235507860287
35.699326988154645
35.35629889770639
35.0132708072582
34.67024271680998
34.32721462636176
33.98418653591354
33.64115844546535
33.29813035501713
32.95510226456891
32.612074174120686
32.269046083672464
31.926017993224242
31.58298990277602
31.2399618123278
30.896933721879577
30.55390563143139
30.21087754098317
29.867849450534948
29.524821360086726
29.181793269638543
28.83876517919032
28.49573708874206
28.15270899829384
27.809680907845618
27.466652817397435
27.123624726949213
26.78059663650099
26.43756854605277
26.094540455604584
25.751512365156362
25.40848427470814
25.065456184259883
24.722428093811697
24.379400003363475
24.036371912915254
23.693343822467032
23.35031573201881
23.007287641570624
22.664259551122402
22.32123146067418
21.97820337022596
21.635175279777737
21.292147189329516
20.949119098881294
20.606091008433072
20.26306291798489
19.920034827536668
19.577006737088446
19.233978646640224
18.890950556192003
18.54792246574378
18.20489437529556
17.861866284847338
17.518838194399116
17.17581010395093
16.832782013502708
16.489753923054487
16.146725832606265
15.803697742158043
15.460669651709859
15.1176415612616
14.774613470813378
14.431585380365156
14.088557289916972
13.74552919946875
13.402501109020529
13.059473018572307
12.716444928124123
12.3734168376759
12.03038874722768
11.68736065677942
11.344332566331198
11.001304475883014
10.658276385434792
10.31524829498657
9.972220204538349
9.629192114090165
9.286164023641943
8.943135933193721
8.6001078427455
8.257079752297278
7.914051661849056
7.5710235714008345
7.227995480952613
6.884967390504391
6.541939300056206
6.198911209607984
5.8558831191597625
5.512855028711541
5.169826938263356
4.826798847815097
4.483770757366876
4.140742666918654
3.79771457647047
3.4546864860222484
3.1116583955740267
2.768630305125805
2.4256022146775833
2.082574124229398
1.7395460337811766
1.396517943332918
1.0534898528846963
0.7104617624365115
0.36743367198828986
0.025262348082978486
-0.24510462667897476
-0.4099783390286861
-0.4998581702907733
-0.5888089087560145
-0.7140578448093354
-0.8155337824239086
-0.9220556483744514
-0.8241167790581543
-0.1981297802833514
0.7160100325673528
1.451629634054028
1.5515643179756013
1.2352528852662412
0.7418397515093943
0.315342752780677
0.06169088701638213
-0.16346817529385976
-0.3051816664833266
-0.44765873446154075
-0.6488817036800333
-0.8505695138707817
-0.9569811968717883
-0.6988989288579694
0.12102422308331484
1.0054677074434433
1.7618472267404195
1.7467220616652246
1.3793918384367945
0.8067251290280488
0.3642055346395189
0.10019348178905885
-0.09690783438498307
-0.25488213326179593
-0.41807920572347995
-0.6153612455913786
-0.8135095466510452
-1.0011058435241507
-0.9550192305044245
-0.35777211193088027
0.6794171718116181
1.7007590315552252
2.1294001874936237
1.9193670079836507
1.4037830777725453
0.9169578982198625
0.4769902055514247
0.2184027718487831
0.0641790305130758
-0.06683033716177807
-0.21460823982517896
-0.39973109793375877
-0.6446959999525352
-0.8895378988447435
-0.9904329664821369
-0.670145516411331
0.30341743436625496
1.3848731829097491
2.335382212675413
2.423427135107913
1.9597967322055907
1.329271461145062
0.9798834451964358
0.7333277495599864
0.574264556414092
0.4937352374673809
0.3321744874685475
0.10665677880762264
-0.13505351923122777
-0.3864810272138801
-0.6412655405603847
-0.8891019303128257
-0.931964747106735
-0.3780133938591991
0.6280587221554887
1.6928594229794875
2.275314781966477
2.0368049353090845
1.5459499131525798
0.8413154715236706
0.4948164108985873
0.3121555103165176
-0.100975053145738
-0.21669900541814785
-0.3324229576905702
-0.44814690996296747
-0.5638708622353773
-0.7678602792740677
-0.9099051135100265
-0.7747216230733882
0.1567092600509239
1.1315862497734248
1.6663337119273904
1.6729119860439183
1.3559967771698986
0.713747784111786
0.27263355455666244
-0.012790902182490405
-0.22400225556665762
-0.3758254972203783
-0.5413522788258833
-0.7348163756779272
-0.904361810379911
-1.087250642270143
-1.1701132382850485
-0.8025522900733397
0.11293865131799469
1.0445298604866928
1.573242681537213
1.4994448759771704
1.071657591835136
0.5603355761401274
0.12287233514479073
-0.1651023890562279
-0.3551357453910151
-0.5016520494774014
-0.6293103218846097
-0.8357622071751126
-1.0328185449942142
-1.1677884843731876
-0.9924093227515183
-0.40762322732833134
0.6171335420456449
1.492374704452843
1.8743355207072332
1.6237307639438867
1.1040403234354899
0.5587172901348975
-0.025684526473333316
-0.2169100261683487
-0.400280180096216
-0.5390053818342618
-0.7111482914064338
-0.8974098392441865
-1.0758633317566635
-1.0265145827635163
-0.34956123642882475
0.7554085388794504
1.8236160317579542
2.3636332628525274
2.1609290174928333
1.6077100433958298
0.9574800454505432
0.4786578986913176
0.1427602489299557
-0.014926531777397084
-0.16728476952949653
-0.3825649031114703
-0.6453543020892445
-0.8955019020846785
-1.1440419690151709
-0.9955430824317671
-0.11849898088431465
1.1462397078454354
1.9742501646431752
2.000661623059948
1.5666436544807851
0.8905729835575306
0.2813152373793705
-0.10300277211613687
-0.32755739239363785
-0.4596459582823733
-0.6267185680236794
-0.7939116224882287
-0.9987976243605746
-1.2867290594841618
-1.526390169115765
-1.4547657101159623
-0.6854134521309563
0.4744893487765731
1.287907035444886
1.513676870381827
1.1817206751251774
0.5899120855635125
0.09798267461175764
-0.24630168165193117
-0.46104486173815346
-0.5912034660177867
-0.7043613745719944
-0.8351332551420508
-1.0216182208754696
-1.2108042850524177
-1.4109225476086458
-1.524053645863395
-1.2857340828007833
-0.27020939841209524
0.7347038061608281
1.699008116857854
1.5509371082613659
0.9900017424073742
0.39705391626846875
0.11122056003692643
-0.12342646423795767
-0.21237372112160086
-0.2799654703605273
-0.4343330987052435
-0.6331250660571046
-0.7936982965241397
-0.9948738229851172
-1.162533112591975
-1.127941965446688
-0.5894368903519499
0.45374486421218874
1.258048261871065
1.5550635390655596
1.3581685678458892
0.8848383648790593
0.4078648665777044
0.17501407285500276
0.0715958299405042
0.024376320265728127
-0.02966655576322213
-0.16814720269096556
-0.33172507712823196
-0.5552915101299145
-0.6345737515062495
-0.4768596860311838
0.19566036655570201
1.0111008388905807
1.5945648193153164
1.6886993832691626
1.260618320838437
0.6167237843611513
0.14895834621651466
0.031799322806475114
-0.16940607013100756
-0.3070221054292651
-0.4710744351887384
-0.6954995858026914
-0.8610567599617986
-0.9522043645169661
-0.6513352969718469
-0.003650232075052516
1.0479246592709093
1.689775365023248
1.694395038141596
1.2128369777276
0.6970025508524567
0.25855467560721684
0.0445158945277091
-0.08224945771006853
-0.26551320446176224
-0.40265759559269293
-0.5364564729186967
-0.6899154231504626
-0.7376766916989259
-0.4050201685226436
0.2950918103976822
1.3436609736068474
1.9400033892325648
1.9627351950946745
1.5708964845229352
0.9785110419889651
0.5153527378779041
0.27895568550863825
0.06055553598152995
0.019718415686135787
-0.15655742637908832
-0.27394070378602264
-0.5212636565313947
-0.7396729057666649
-0.5014026293471514
0.5050152322198086
1.457456357496922
2.1463414945860735
2.27147534673641
1.8460255534520589
1.2983096531902627
0.8647387042537326
0.5434038473379156
0.429571810755685
0.32961195650439307
0.18187679690086944
0.025235671060592962
-0.19116584163572473
-0.4426492799031032
-0.48959227914818393
-0.0912914713053864
0.8552518311413552
1.8485162113238052
2.545480771467625
2.538900674567384
2.10927176266979
1.4850094680921533
1.0164054225499781
0.7762046594552753
0.5850255756307752
0.4243499998433812
0.24783593171897372
0.03276879388645357
-0.21831586044562518
-0.45113058261497874
-0.6531633539070222
-0.612711613422825
-0.24671198431209318
1.067759641598963
1.7496449576006878
2.0336946651411862
1.7136658586952078
1.1880981015994405
0.6656860665969522
0.27638476524319167
0.055844743915036923
-0.07438811782601211
-0.17707097559837676
-0.3600351959896638
-0.5729125614090468
-0.7972088005467945
-1.0407114186682198
-1.2510118602907483
-1.43999345390503
-1.6103887981914091
-1.756443065436836
-1.8373941012932469
-1.7373833797337297
-0.7903903982600445
0.49391237549129297
1.5621666737885544
2.069884109236262
1.9006937600569664
1.3621425228981292
0.8110459361547568
0.41000215425573217
0.17105211442637486
0.0317825580803081
-0.08740721634908365
-0.3247538814517144
-0.5952350172994094
-0.8724681145799147
-1.154249881470339
-1.3645353235470896
-1.6489663921689217
-1.8352365672953916
-1.9145997613177015
-1.4057340008162262
-0.4168277826172901
0.7248795764309284
1.635325969368459
1.636218906858015
1.2325065496128746
0.6628524570131917
0.18506491203632694
-0.12389406648839524
-0.29015894263368924
-0.4080796108010978
-0.5339105577500796
-0.7442109993726536
-0.9668028300368913
-1.1704793333974062
-1.3597392893034022
-1.546705198842169
-1.6934144539034586
-1.8494201507633077
-1.9574716267979797
-1.9314450936429715
-1.5966845018713869
-0.5042106862274096
0.7944306919914317
1.6398770766300819
1.8453399522124652
1.4205707096626
0.9759692096023794
0.4591561928371555
0.24178786175294897
0.12010783181997567
0.0549129175436196
-0.04994305084744309
-0.20004687606903404
-0.4093137403403555
-0.659835555888277
-0.94299911496188
-1.1475483358620273
-1.3999762746651783
-1.5480237603872407
-1.6094963238183053
-1.1185739052910204
-0.1279023632538745
1.1175906195860357
1.5735023477981025
1.488050913758459
0.9205891879840726
0.44853185747370095
-0.030028227275959492
-0.19929773144125873
-0.2987241727629796
-0.3584974763042351
-0.45866634284931806
-0.6083842996436282
-0.8157002822005697
-1.0230346528825587
-1.171189512133131
-1.350309051746
-1.500933247608335
-1.3525434604842785
-0.5964939439254122
0.31374153047183895
1.20786683592445
1.2459441711690613
0.8785083917690308
0.282903437745578
-0.11200988765795641
-0.3663735373612188
-0.5208234610273006
-0.5766734920827619
-0.6528892943347712
-0.7786204599674944
-0.9363768947614123
-1.074072846807668
-1.256639224833049
-1.3238570694256637
-1.0025719334455805
-0.15571629414848515
0.7722806337850657
1.4074384343151898
1.357661215429553
0.920773667886204
0.4126895417477634
-0.019197627326217333
-0.2499987040014815
-0.36464612749688213
-0.45559320754811006
-0.5641494653813222
-0.7101091541122048
-0.8933180412496656
-1.1399272840657058
-1.2132791781270866
-1.1006262627288637
-0.2959402656545349
1.0807517781937996
1.6216576903546143
1.7293494861404892
1.3629780918966956
0.7984444155956836
0.2933033216938361
-0.041226306205654914
-0.2665321128784566
-0.38614837587816786
-0.5006849818194473
-0.6208631072058881
-0.8251073681419064
-1.0680763546788588
-1.2389022270324253
-1.1776324914747895
-0.4594088900478155
0.8692571932489557
1.7191246575275665
2.099051902657268
1.819548837301738
1.208085609967608
0.6207723553734851
0.13095630601327624
-0.012895027308094942
-0.09852851529837636
-0.22059828645428187
-0.3572838181752754
-0.58225655513513
-0.8177663943452786
-1.0223684004561573
-1.2205624431242397
-0.7326987131870424
0.20876937747406807
1.483310034160857
1.998781145348794
1.8257321959651946
1.1657318700282955
0.6314206476472074
0.19533735633057353
-0.01000537359032528
-0.11726327808698361
-0.18407855344868757
-0.3468743990582656
-0.5632886270374534
-0.7360562987126734
-0.9627762225091597
-1.052072990755638
-0.6894652498548524
0.3823727405622691
1.662568605560781
2.3211488717749265
2.2451230304950114
1.7354345805426192
1.1236963941598492
0.5885475916106476
0.3752699828043748
0.26595158155366083
0.16596855393777982
0.03959642759365242
-0.16640045579530333
-0.41075276236479064
-0.6534690622251883
-0.8387558766508891
-0.5617945874083191
0.317974345409751
1.175160319517264
1.64011104960852
1.5511143976618522
1.0598624990882533
0.42602464001333007
0.10584643533332301
-0.05937780093226655
-0.19329541853527682
-0.25336194974481446
-0.4306405169013857
-0.6163859453978402
-0.8238409878162901
-0.8987985189975454
-0.5825878909673345
0.11951350687950263
1.0179284545583902
1.43744297816278
1.2434523318915152
0.7669098277997985
0.23126141148037593
-0.04668104994905828
-0.2315373612338329
-0.3475765037236432
-0.44637263959318213
-0.6219800669373313
-0.8023243451315283
-0.9623896650163842
-1.087892283930663
-0.7384347380153321
0.04887855836019228
1.2768686251004175
1.7704789521468731
1.6515730353291063
1.112175738049419
0.6249621995147874
0.2145603713937499
-0.040077522672896326
-0.14325583376977996
-0.24948870807415202
-0.41168368999783905
-0.5631079371139806
-0.7656626045763746
-0.9521453022533658
-0.6141154029298758
0.1714470555677214
1.2785974966399332
1.9094537907050133
1.9351940572287867
1.5821217509349492
1.0415256335603342
0.5173946801798943
0.21697191428000884
0.06605894637316018
-0.04522661796346475
-0.1993910535035269
-0.4150930162767727
-0.6653709282156044
-0.9423322092208922
-0.9382277773507177
-0.3706599977002387
0.6375350747092086
1.918184081525722
2.2296934198643235
1.9085882988397422
1.4774812115480098
0.8562120554157053
0.35845592636487406
0.19321664286035284
0.036758992732719445
-0.08559698723377915
-0.23745581312424766
-0.4670797169957257
-0.7325731089154203
-0.999581614657978
-1.259878894937535
-1.5060974932902111
-1.3385715294131373
-0.4995403746155048
0.6993509105675555
1.7683527904751122
2.2279766434854458
1.8388066627373636
1.2334314174513124
0.8333608372697727
0.3853812206196212
0.27781412303260855
0.19038020275019651
0.051423079062241084
-0.12243737786343553
-0.40354164068305254
-0.633891730594664
-0.863867591304691
-1.0643798352156828
-1.2530207328497398
-1.3919537515427165
-1.542559638166069
-1.6659857802215543
-1.6336299085160497
-1.1934232999201981
0.0666726219483087
1.4433933965011063
2.285286163984959
2.4413487510610046
2.029305211874416
1.4585154248950993
0.8564182182098159
0.632238439275054
0.5045747747358883
0.4430432144171617
0.30996970241226907
0.1466204634412005
-0.07277599674918248
-0.3382462443800192
-0.6190561775151888
-0.8635092606758384
-1.0454287076506104
-1.2507325168876182
-0.9338380013739405
-0.09912283635945984
1.1009973768735142
1.7622149226813093
1.8117069512017923
1.3126645413708853
0.7879366813874761
0.3315954475637264
0.0506158047662595
-0.042710222788032826
-0.14148909958696387
-0.2666557445159619
-0.4295484139085596
-0.6132051961629864
-0.8539834301567459
-1.0758519114737144
-1.242195853182799
-1.1602749648742217
-0.474239696429257
0.5182964957301183
1.3755645834487724
1.5033490933601736
1.1669550584938122
0.66976542498335
0.21893727656615408
-0.09090534080531795
-0.23935076989378784
-0.31117368755350117
-0.41506075594935776
-0.5674222733111697
-0.7551903010663842
-0.926174432417959
-1.1708580623434623
-1.1456566773106238
-0.6970993513781649
0.2716903991334226
1.2992746805328477
1.868104614380083
1.701874907946015
1.229499488924777
0.6887622620310708
0.2270800653698755
-0.01478431545081435
-0.16920764278329276
-0.29457705842759463
-0.4302443257000862
-0.5987372883540846
-0.796964137760872
-1.0218177949524965
-1.1493954909584774
-0.7180984184886318
0.3059714232669706
1.3630477547652347
1.921497332439983
1.9327477406366427
1.4905178963120034
0.9365952931147183
0.4082507301617113
0.07017408376615775
