182.62423075999996
182.26822512770636
181.91221949541278
181.55621386311915
181.20020823082558
180.84420259853198
180.48819696623838
180.1321913339448
179.77618570165117
179.42018006935757
179.064174437064
178.7081688047704
178.35216317247682
177.9961575401832
177.6401519078896
177.28414627559602
176.9281406433024
176.57213501100884
176.2161293787152
175.8601237464216
175.50411811412803
175.14811248183443
174.79210684954086
174.43610121724723
174.08009558495363
173.72408995266005
173.36808432036645
173.01207868807282
172.65607305577925
172.30006742348564
171.94406179119207
171.58805615889847
171.23205052660487
170.8760448943113
170.52003926201766
170.1640336297241
169.8080279974305
169.45202236513688
169.09601673284328
168.74001110054968
168.3840054682561
168.0279998359625
167.6719942036689
167.3159885713753
166.9599829390817
166.60397730678812
166.24797167449452
165.89196604220092
165.53596040990732
165.17995477761372
164.82394914532014
164.46794351302654
164.11193788073294
163.75593224843934
163.39992661614573
163.04392098385216
162.68791535155853
162.33190971926496
161.97590408697135
161.61989845467775
161.26389282238415
160.90788719009055
160.55188155779697
160.19587592550337
159.8398702932098
159.48386466091617
159.1278590286226
158.771853396329
158.4158477640354
158.05984213174182
157.7038364994482
157.3478308671546
156.991825234861
156.6358196025674
156.2798139702738
155.9238083379802
155.56780270568663
155.21179707339303
154.85579144109943
154.49978580880583
154.14378017651222
153.78777454421862
153.43176891192502
153.07576327963145
152.71975764733784
152.36375201504424
152.00774638275064
151.65174075045704
151.29573511816346
150.93972948586986
150.58372385357626
150.22771822128266
149.87171258898906
149.51570695669548
149.15970132440188
148.80369569210828
148.44769005981468
148.09168442752107
147.7356787952275
147.3796731629339
147.0236675306403
146.6676618983467
146.31165626605312
145.95565063375952
145.59964500146592
145.2436393691723
144.8876337368787
144.53162810458514
144.17562247229154
143.81961683999793
143.46361120770433
143.10760557541073
142.75159994311713
142.39559431082355
142.03958867852995
141.68358304623635
141.32757741394275
140.97157178164915
140.61556614935554
140.25956051706197
139.90355488476837
139.54754925247477
139.19154362018116
138.8355379878876
138.479532355594
138.12352672330036
137.76752109100678
137.41151545871318
137.05550982641958
136.699504194126
136.34349856183238
135.9874929295388
135.6314872972452
135.2754816649516
134.91947603265803
134.5634704003644
134.20746476807082
133.85145913577722
133.49545350348365
133.13944787119004
132.78344223889644
132.42743660660284
132.07143097430924
131.71542534201564
131.35941970972206
131.00341407742846
130.64740844513486
130.29140281284126
129.93539718054765
129.57939154825405
129.22338591596048
128.86738028366688
128.51137465137327
128.15536901907967
127.79936338678607
127.4433577544925
127.08735212219887
126.7313464899053
126.37534085761169
126.0193352253181
125.6633295930245
125.3073239607309
124.9513183284373
124.59531269614371
124.2393070638501
123.88330143155653
123.52729579926292
123.17129016696934
122.81528453467573
122.45927890238214
122.10327327008855
121.74726763779493
121.39126200550135
121.03525637320774
120.67925074091414
120.32324510862057
119.96723947632695
119.61123384403334
119.25522821173976
118.89922257944616
118.54321694715256
118.18721131485897
117.83120568256538
117.4752000502718
117.11919441797818
116.76318878568459
116.40718315339099
116.05117752109739
115.69517188880381
115.3391662565102
114.98316062421661
114.627154991923
114.2711493596294
113.9151437273358
113.55913809504221
113.20313246274863
112.84712683045503
112.49112119816142
112.13511556586785
111.77910993357423
111.42310430128063
111.06709866898706
110.71109303669344
110.35508740439985
109.99908177210625
109.64307613981265
109.28707050751908
108.93106487522546
108.57505924293184
108.21905361063827
107.86304797834467
107.50704234605107
107.15103671375748
106.79503108146389
106.43902544917029
106.08301981687669
105.7270141845831
105.3710085522895
105.0150029199959
104.65899728770232
104.3029916554087
103.94698602311512
103.59098039082151
103.23497475852791
102.87896912623431
102.52296349394072
102.16695786164713
101.81095222935353
101.45494659705993
101.09894096476636
100.74293533247274
100.38692970017912
100.03092406788555
99.67491843559195
99.31891280329836
98.96290717100476
98.60690153871116
98.25089590641755
97.89489027412397
97.53888464183038
97.18287900953678
96.82687337724317
96.47086774494957
96.11486211265598
95.7588564803624
95.4028508480688
95.0468452157752
94.69083958348159
94.334833951188
93.97882831889439
93.6228226866008
93.26681705430721
92.91081142201362
92.55480578972
92.19880015742642
91.84279452513282
91.48678889283923
91.13078326054564
90.77477762825204
90.41877199595845
90.06276636366484
89.70676073137125
89.35075509907766
88.99474946678404
88.63874383449046
88.28273820219685
87.92673256990325
87.57072693760965
87.21472130531606
86.85871567302247
86.50271004072889
86.14670440843528
85.79069877614168
85.43469314384808
85.07868751155449
84.7226818792609
84.3666762469673
84.01067061467371
83.6546649823801
83.2986593500865
82.9426537177929
82.5866480854993
82.23064245320572
81.87463682091212
81.51863118861853
81.16262555632491
80.80661992403132
80.45061429173774
80.09460865944415
79.73860302715055
79.38259739485696
79.02659176256334
78.67058613026975
78.31458049797614
77.95857486568255
77.60256923338896
77.24656360109536
76.89055796880176
76.53455233650816
76.17854670421457
75.82254107192098
75.46653543962738
75.11052980733379
74.75452417504017
74.39851854274659
74.042512910453
73.68650727815941
73.33050164586581
72.9744960135722
72.6184903812786
72.262484748985
71.9064791166914
71.55047348439781
71.19446785210422
70.83846221981062
70.48245658751704
70.12645095522342
69.77044532292983
69.41443969063624
69.05843405834264
68.70242842604905
68.34642279375547
67.99041716146185
67.63441152916826
67.27840589687465
66.92240026458106
66.56639463228747
66.21038899999387
65.85438336770027
65.49837773540666
65.14237210311308
64.78636647081949
64.43036083852589
64.0743552062323
63.71834957393872
63.3623439416451
63.006338309351506
62.65033267705792
62.29432704476432
61.938321412470714
61.58231578017712
61.22631014788351
60.870304515589915
60.51429888329633
60.15829325100273
59.802287618709144
59.44628198641555
59.09027635412194
58.734270721828345
58.37826508953475
58.02225945724116
57.66625382494757
57.31024819265397
56.95424256036036
56.598236928066754
56.24223129577316
55.88622566347957
55.530220031185976
55.17421439889238
54.818208766598794
54.46220313430518
54.10619750201159
53.750191869717995
53.39418623742441
53.03818060513081
52.68217497283722
52.32616934054361
51.97016370825001
51.614158075956425
51.25815244366281
50.90214681136922
50.546141179075626
50.19013554678202
49.83412991448842
49.478124282194834
49.12211864990124
48.766113017607644
48.410107385314056
48.05410175302044
47.69809612072685
47.34209048843326
46.98608485613967
46.630079223846074
46.274073591552465
45.91806795925885
45.56206232696526
45.206056694671666
44.85005106237807
44.49404543008448
44.13803979779089
43.7820341654973
43.426028533203684
43.0700229009101
42.7140172686165
42.35801163632291
42.00200600402932
41.646000371735724
41.289994739442115
40.93398910714852
40.57798347485491
40.221977842561316
39.86597221026773
39.50996657797413
39.153960945680524
38.79795531338693
38.441949681093334
38.085944048799746
37.72993841650615
37.37393278421256
37.01792715191895
36.66192151962536
36.305915887331764
35.94991025503817
35.59390462274458
35.237898990450965
34.88189335815738
34.52588772586376
34.16988209357017
33.81387646127658
33.45787082898299
33.101865196689396
32.7458595643958
32.38985393210219
32.0338482998086
31.677842667515005
31.32183703522141
30.96583140292782
30.609825770634227
30.253820138340615
29.897814506047006
29.54180887375341
29.18580324145982
28.829797609166228
28.473791976872636
28.117786344579024
27.761780712285432
27.405775079991837
27.049769447698246
26.693763815404655
26.337758183111063
25.98175255081747
25.62574691852386
25.269741286230268
24.913735653936673
24.557730021643064
24.20172438934947
23.845718757055877
23.489713124762268
23.133707492468673
22.777701860175082
22.42169622788149
22.0656905955879
21.709684963294304
21.353679331000695
20.9976736987071
20.64166806641351
20.285662434119917
19.929656801826326
19.573651169532734
19.2176455372391
18.86163990494551
18.505634272651918
18.149628640358326
17.79362300806473
17.43761737577114
17.08161174347755
16.725606111183936
16.369600478890344
16.013594846596753
15.657589214303163
15.301583582009568
14.945577949715977
14.589572317422366
14.233566685128773
13.877561052835162
13.521555420541551
13.165549788247978
12.809544155954367
12.453538523660793
12.097532891367182
11.741527259073608
11.385521626779997
11.029515994486387
10.673510362192813
10.317504729899202
9.961499097605628
9.605493465312017
9.249487833018444
8.893482200724833
8.537476568431222
8.181470936137648
7.8254653038440365
7.469459671550463
7.113454039256852
6.75744840696324
6.4014427746696665
6.045437142376056
5.689431510082444
5.333425877788832
4.977420245495259
4.621414613201647
4.265408980908036
3.909403348614464
3.5533977163208523
3.1973920840272796
2.8413864517336678
2.4853808194400564
2.129375187146483
1.7733695548528718
1.4173639225592987
1.0613582902656873
0.7053526579721142
0.3493470256785026
-0.006658606615108753
-0.3626642389086818
-0.7186698712022932
-1.0746755034958664
-1.3058431
-1.0420588254963095
-0.07582179415151702
1.220292540604067
2.072527810244097
2.159188788143416
1.68712456182757
1.0155260598329208
0.25993724667999873
-0.1777275378917188
-0.35891801869459705
-0.36044071980942494
-0.30857422
-0.3371696855784383
-0.48505958017612627
-0.8022330429666074
-1.1074966865845146
-1.3429909665067008
-0.9013048565665043
-0.22542922600493331
0.3359638873618572
0.8973570007285872
1.4587501140953778
2.020143227462108
1.5826537876257314
1.0249730959098455
0.2884960665086329
-0.29936818596469916
-0.4722781366187588
-0.39614476950972766
-0.26559960257434473
-0.22804700574222955
-0.30939648969501754
-0.4675281521255752
-0.7094065497187192
-1.0408669334224088
-1.1994593997195586
-0.7969722414491629
0.24798757104766023
1.3064884752936394
1.9855907661324708
1.77952254198774
1.2929765229604802
0.6169332670554047
-0.016503996943334653
-0.3857463782827503
-0.47920689977436054
-0.36614991618431947
-0.29638116881152715
-0.3187812340547838
-0.4404590504574394
-0.6529249529366061
-0.9214501997945894
-1.1412054103318077
-0.956024399817339
0.1352128569228883
1.1883179727200048
2.0879067816141297
2.0612398881935996
1.4850749758901332
0.7330776385195864
0.22320026255930914
-0.33597719829426786
-0.46143697306755105
-0.37733665980530773
-0.307202436680553
-0.30238205656340633
-0.39151779225718986
-0.5933228163003572
-0.834065570929728
-1.0904059477546397
-1.1572285139740415
-0.7941405592513386
0.20767361490627345
1.4786188162875236
2.047446203688491
2.0021238019637364
1.5343966989868403
0.8523621876671823
0.19722448091472022
-0.1592668068865239
-0.2726198084689137
-0.2242084994274849
-0.12796156107276233
-0.15835024790232932
-0.32691091267275996
-0.5579389539385372
-0.8316324282091634
-1.0980897309278186
-1.2373906579573766
-0.5409306961426622
0.5009336616585572
1.9120631647942352
2.1329931025188853
1.722829931446863
1.0170963686729544
0.45987080618723153
-0.21977765574003122
-0.42813701899002177
-0.423173731267658
-0.33603461474660895
-0.30119630877256737
-0.39142067449961765
-0.548243705772997
-0.8071216601906073
-1.0370241806613403
-1.2914209213396
-1.245411428345947
-0.5914486372797864
0.6320280409464716
1.6269843170774752
1.9440083260199061
1.6146038055005238
0.9609991645015271
0.2772933912682162
-0.19783822182719496
-0.36484294780333903
-0.3150863047864723
-0.19462777305419438
-0.19642181510357667
-0.30136868143584017
-0.4919645425825939
-0.7182748464575006
-0.9918658639803294
-1.070818
-0.7109565512376252
0.1454171764865546
1.2809709019893458
1.7214550466382137
1.5843643891772645
1.0676028236998116
0.37497085842555444
-0.10859000079877154
-0.44629146875314724
-0.4573182034488842
-0.3567278573760555
-0.34033438
-0.4056215575891113
-0.5368656718322605
-0.7607002529003165
-0.9111433342249343
-1.1588599752267315
-1.3824892373714432
-1.2758142444838345
-0.41752017312685563
0.8393355005512582
1.8080820813514404
1.8979364755000372
1.4306833712209697
0.7900741228615573
0.1197822162386283
-0.25446147057398294
-0.44208850402794386
-0.41593309339664525
-0.30174756780004597
-0.2983313901067526
-0.41282936021810923
-0.5847788760132416
-0.7889596746661715
-1.0342993502366997
-1.2408796444219095
-1.372419752911625
-0.9817155319029787
-0.046009333676921504
0.957076504723904
1.7944472586098803
1.6675527834118875
1.1268213807625151
0.5326527273602503
-0.03005782801012652
-0.4043584027582853
-0.5192097118618397
-0.45675497423036887
-0.3588521145076042
-0.3750039111471497
-0.4885454710526991
-0.7236457339724414
-0.9424500743082292
-1.2426613772880557
-1.4527731529942363
-1.6249879816071637
-1.4586946428106122
-0.4328337504244304
0.8542551669507507
1.845045442148506
1.8944041995656824
1.486502295586582
0.7938322354760624
0.11663373431068358
-0.3762195473130146
-0.6059039620471056
-0.5659235605591386
-0.4469181795715823
-0.43195413075167416
-0.5100555339439472
-0.6766828453258674
-0.9072640567724476
-1.1161894468934501
-1.3382084609156102
-1.318061041684925
-0.388964735857198
0.6153917255000751
1.6443802894543262
1.8532339889374378
1.4156108872703337
0.6854667357051131
0.12460162375420758
-0.3975085015258935
-0.5945278517599297
-0.5047679637510436
-0.3737935515636566
-0.2950028173799967
-0.33000088652577686
-0.48296410252465893
-0.7111665822897459
-0.9649768530457227
-1.2149000452705114
-0.9617542232169742
0.055186547926441676
1.0167007162941795
1.8608430176852915
1.856938096337461
1.3210845639334838
0.6731933869254593
0.05167618096652182
-0.39540057773223564
-0.461796397417124
-0.34134513910131026
-0.2429407050090571
-0.2503852923233672
-0.3780428135533407
-0.5370634149381803
-0.7851877210718151
-1.044405189784606
-1.194404909852719
-0.9242883908591264
0.03845117261494249
1.4407087308914344
2.147245783920474
1.9836069721397032
1.407577190037173
0.7750317347043036
0.13856688529661343
-0.22125407438628356
-0.32974756747723755
-0.2379460234421789
-0.15881498634592636
-0.1634282536930835
-0.3196285328227703
-0.49640301770041717
-0.7920958032752697
-1.0045616736464513
-1.1649866605909938
-0.9643494697372483
0.2197692807344138
1.2921943292326934
2.019850241465417
1.8684598411140074
1.3780846228349586
0.7875161742062404
0.07901492933952642
-0.24335363771850216
-0.32960159045770454
-0.25816868937522874
-0.17959411926266744
-0.2297323843215396
-0.3837578596245953
-0.5692835473653437
-0.7915562012911742
-1.155279867446861
-1.3158282805687904
-1.0769016027626974
-0.1510661575734259
0.9144422625866491
1.7222453097686934
1.9114282750676839
1.4980955470516055
0.8258704272239581
0.09181297215009585
-0.2818801103479616
-0.4802033410160163
-0.43867198399435003
-0.33656287145798075
-0.3289937809939162
-0.44957111110541015
-0.6114885456659931
-0.8231577665117713
-1.0946562691609296
-1.2150916730011774
-0.8327870484752431
-0.08012905068182175
1.0541978351078511
1.7886496288970635
1.7653397272412934
1.269028313927839
0.5529343392003225
-0.0709503094866506
-0.37756805074745703
-0.40413873850238424
-0.2774592357555731
-0.2205996927226415
-0.28229123773966536
-0.39909414970871077
-0.5990845527347641
-0.8059692666469297
-1.0532281442075184
-1.0311329404287213
-0.44551508954937724
0.5542887367288472
1.5221418686576271
1.8800584262519209
1.5650329311716908
0.9928046933438945
0.3323307532361933
-0.13395689156666368
-0.35646556227869436
-0.334716737056803
-0.2612805643737464
-0.22466520339327184
-0.28418818030162263
-0.46264526028233943
-0.6622716573003966
-0.9103782443790329
-1.1013951192027314
-1.0165367683124478
-0.4129614556360008
0.683274904284113
1.5561014098405814
1.8269646289067758
1.5491899346780067
0.9876963089055795
0.3758434529369823
-0.07104565727346185
-0.29394069914926835
-0.33105749545845875
-0.258890007931484
-0.21641722243050385
-0.31007419234856715
-0.49125430589006136
-0.7116074152774189
-0.9479886932976302
-1.2087315998821542
-1.3107070558094074
-0.8274226857693572
0.5399706956423467
1.179079430367615
1.9178846718935194
1.7734363662493071
1.0731181895014323
0.5748335359212778
-0.055294127895248645
-0.3116866702708345
-0.43475263264459485
-0.36167899494268985
-0.2917626863351331
-0.3371478508839547
-0.5550124038274005
-0.7604033353684894
-1.0224717559584207
-1.2571757846925127
-1.528185013765462
-1.6971162280100707
-1.309725262790223
-0.24395729112895448
1.0887008189208804
1.8611224977029064
1.8520698120160481
1.27232453735418
0.5721524643055766
-0.07631582917842711
-0.47541532228596517
-0.5746374643902622
-0.4882633329894017
-0.3712825505165351
-0.4108140645762119
-0.5457772577709163
-0.7621114259550339
-1.0150331137924529
-1.2634248465020392
-1.4635770967207276
-1.2838124861490596
-0.5538259870489532
0.6291265470860014
1.5327577353395305
1.9029890905151823
1.5136184495507534
0.8605743016797089
0.16174917215951606
-0.37720699528966306
-0.5522429227325857
-0.4434978284995973
-0.31149430835638614
-0.288405526644802
-0.3906701036239306
-0.5874109370602104
-0.7762947099294086
-1.0247530794539326
-1.2904679070399672
-1.0063909983624866
-0.2000510866468339
0.9423217818134819
1.8727546911252966
1.9802968575101487
1.495751337281201
0.8587968040720452
0.13195373158018164
-0.29339577040925413
-0.3830635906080512
-0.2905654961436195
-0.212225214614057
-0.18968327172487037
-0.3293959924746585
-0.5699832513122991
-0.8079736810216238
-1.0470231532542902
-1.256580886755768
-1.0143891187260201
-0.017790331270087723
1.1401055900384207
2.0893176
2.0149107818916416
1.5542424905417755
0.8150565963741054
0.23258314093893953
-0.17312945665219823
-0.31293635466733355
-0.28068413444505125
-0.1727219485068693
-0.1769379896169592
-0.30497886888541614
-0.5695336015944831
-0.7128929191480768
-1.011875839654025
-1.2287316396578878
-1.2113386556611232
-0.4962024400902587
0.5914582952398171
1.5954643586996715
2.0980619295984906
1.7921354815467316
1.17164441721846
0.5195947747632229
-0.019824964095151026
-0.3881476143333903
-0.4178482026164161
-0.27681406
-0.27681406
-0.418804987118164
-0.6200381420668876
-0.860223438850846
-1.1746045132990675
-1.4148239983290978
-1.5234854802263735
-1.1451544265351397
0.037891808222838996
1.1985231248505153
1.9150888989388755
1.8164872891456134
1.2368402908137726
0.4785817471925694
-0.11502084869948517
-0.46034734190695314
-0.4988517492052709
-0.34729782109557805
-0.23148842761459423
-0.2665866695899943
-0.3991621259619952
-0.6519907559045586
-0.9222441789563601
-1.1537293429781506
-1.2423228000000002
-0.6623011818811225
0.3249719644710185
1.5329714599017015
2.000604002374068
1.7311776809071417
1.1154946557662084
0.3456087303431796
-0.11446502965656247
-0.4007464789206503
-0.37671720510444795
-0.2606178992391167
-0.21861096582795247
-0.2998087798064953
-0.4522496315874173
-0.7080607463588421
-0.9003786016952723
-1.197881156316868
-1.2185901548746767
-0.5897572300933914
0.527158100582732
1.7359379056865487
2.0259827991920014
1.7072188701294473
1.0848284449255816
0.5074463533482951
-0.07582414538711091
-0.377998378463933
-0.3327493502243064
-0.21179339493429133
-0.15136405552148013
-0.25850786049508784
-0.45466312521699415
-0.6749413303491179
-0.8934867277586745
-1.0897911357564638
-1.3154067318691642
-1.0462722732380993
-0.26803964152346554
1.1093031037031622
1.9194112430513268
2.0434082200158814
1.5776594560766593
0.9182010127675002
0.3232618540894935
-0.12616815571051032
-0.2500444264047658
-0.22470952556062912
-0.11801328
-0.1575616127914288
-0.32500710889074685
-0.5214571225780361
-0.794957140286021
-1.0737468752718484
-1.3936274949105547
-1.5001119179541118
-1.1928028719831139
0.1212976453402817
1.2267366162168851
1.9318123826961369
1.8666505946959306
1.4156199183993232
0.5402336388266744
-0.0894607720001761
-0.4553792818789354
-0.5541594190456459
-0.4500432412907426
-0.36765734547187073
-0.38736505422212253
-0.53993640679578
-0.7366711353917377
-1.0421947766666897
-1.3087891941912666
-1.3916701287882471
-0.9270221444181435
0.2568958398834768
1.317174686094
1.8844701857181623
1.7368578879186694
1.1227207251154996
0.30149302463324995
-0.275263261588935
-0.5202981464559285
-0.4988867940435726
-0.34268422077555716
-0.2542040041915217
-0.30302834364211195
-0.4507581386238372
-0.703514066554277
-0.9737955478798265
-1.1586553755633255
-0.7663058380166847
0.1527056022040626
1.16367082454423
1.8535634350695718
1.7711456552138556
1.1734663817372109
0.5257591665828976
-0.10159732281736378
-0.353154142831114
-0.3683050643382217
-0.26564386582787314
-0.16428993589643898
-0.19824777090775667
-0.3356576843152087
-0.5615192751091851
-0.818395332362218
-0.9883670901039294
-0.80555743130747
0.07212638353718559
1.114763213547096
2.102713675379772
1.9372031083192578
1.2759679846102208
0.7660906086501535
0.16188874518889004
-0.19695046140676237
-0.22970252405468172
-0.1367301858457864
-0.08831872634982983
-0.1642194278419827
-0.2975601267676404
-0.48931774733374156
-0.7540531372238874
-0.964943964238432
-0.8811665258412287
-0.12263769189175372
0.9158803424785398
1.7213535605168793
1.8810085258988987
1.5312757213995722
0.8758203302155132
0.3169524697303751
-0.08514645056742343
-0.26411
-0.23548176698029238
-0.1624775
-0.20157854093647615
-0.3649482946765828
-0.5966059424551374
-0.8554787856175123
-1.094101096642133
-1.2127778346920037
-0.958861067534577
0.08898502900686522
1.0604626228377112
1.7177458041776101
1.615974354411406
1.047522470351292
0.4845687772662333
-0.12967081244930628
-0.4068512001294853
-0.4671674938535869
-0.3686706682615894
-0.32625155922186877
-0.35038996364426306
-0.49244553741404806
-0.7065592525788146
-0.9343750849162404
-1.0584397373444812
-0.909770692638629
-0.15873398681009332
0.8306827191151468
1.4791089157186461
1.4661023151917951
0.9957884491702995
0.41951479991384943
-0.06403049391206406
-0.3691379067371792
-0.43771494962779134
-0.34234612677248444
-0.27186387398657846
-0.28996418199892293
-0.42268134622465175
-0.6161564523182526
-0.8521541799845225
-1.0719402336240937
-0.927617618791907
-0.27950729417032416
0.7109744958294578
1.391445612115613
1.6603575017806298
1.3479168218480366
0.8375867983798753
0.24585254825818798
-0.12523946496216226
-0.24985741019575491
-0.24459149591283327
-0.15992768872330226
-0.2114343076226091
-0.3493936845056797
-0.5295012387174933
-0.743238991802317
-0.9649164522848374
-1.058377005884437
-0.6104707499698165
0.1434715256594924
0.9787378287073281
1.5973328286930641
1.5269187236379098
1.064534301605353
0.46080685936282995
0.026863782875476167
-0.27362653987051916
-0.33213415229865534
-0.2726314577913541
-0.24062701015686627
-0.34586666674226574
-0.46948598618959575
-0.7146653464953132
-0.8761435129837782
-1.1560451413638393
-1.3137679781340184
-1.0739885022700633
-0.3103748269034833
0.9126455758173123
1.5642048296956519
1.6488146308783438
1.2165438067857406
0.5730027099392231
-0.018699608067915277
-0.3561097599682086
-0.4894178512922117
-0.4700556764261885
-0.4120891966193815
-0.4742026811911384
-0.6149237714011315
-0.8125512439876692
-1.0329381197418581
-1.2597541253469628
-1.450573278310097
-1.3142169792115965
-0.4934569347251076
0.5418488558971448
1.3499131713381165
1.5321150810181987
1.1534224404280748
0.5491816300706138
-0.05435070055470473
-0.4189058742067771
-0.4981234226839769
-0.3885760781889445
-0.2920947394281689
-0.3242479119845664
-0.4671216866431641
-0.6409146026129118
-0.8429004928561149
-1.0471135268713923
-1.0974785259851692
-0.6399380088560425
0.2948832364003741
1.128581528711286
1.5118492352262105
1.31624755795784
0.8033388515264097
0.20582782238220054
-0.24308619524967673
-0.41096779820603524
-0.39810185702574097
-0.31295537656250705
-0.3025678616472146
-0.4052320563571238
-0.5654944289677415
-0.7595254160242035
-0.9746238002578681
-1.1820988335059033
-0.9594104622325057
-0.14223455844524102
0.7880278092962534
1.477323961715866
1.4826767497993654
1.031480963509619
0.5280053825218911
-0.01858745744466428
-0.3767392126827036
-0.4579129333484489
-0.41538433548349385
-0.3549378397041102
-0.3706298820229332
-0.4996343445581147
-0.7133722065473931
-0.8892378140874261
-1.0980710905780224
-1.2638165197205633
-0.903054829649415
-0.09432572369112702
1.175112317278297
1.5320264130238754
1.4949927211625074
1.0956057757002529
0.3212039741097925
-0.19447181387688622
-0.4494105018569199
-0.6530456823778339
-0.5569075504362563
-0.48894089292650245
-0.5406417839105413
-0.7184131568633298
-0.8713763728622614
-1.1266919019326915
-1.3801543775237235
-1.5073644658346017
-1.1107981012736248
-0.08064795125530488
0.8031225061854663
1.6293352616462038
1.4212314595571585
0.9013064372877003
0.1402569242475148
-0.35405433212147225
-0.6573044465503751
-0.6798011329481887
-0.5462203348366335
-0.4453433510360793
-0.4673084414638878
-0.5773073315958237
-0.7272828828207265
-0.9449308804823355
-1.0996727800610582
-0.85103363951079
-0.16701529521690212
0.7842099992712065
1.637304486192629
1.6128000214741232
1.1820037832194188
0.5777026493314339
0.008530793075669285
-0.3653622859968234
-0.42216419101392083
-0.34603769773686155
-0.2181684467381342
-0.2830457107247538
-0.45285572481731917
-0.5878231239583169
-0.7693838019795646
-1.0130266062431754
-0.8276452654684743
-0.027789307346962833
1.017186396116492
1.7186010574410369
1.7023955287459747
1.0817104402905682
0.6567071039659997
0.06201146332792243
-0.22593941596094444
-0.3239121888112134
-0.2592290293203573
-0.21329375
-0.22934491005759738
-0.3457183351866696
-0.5396347554308636
-0.7890600888525664
-1.033606938396924
-1.0645595250929039
-0.5072883382062986
0.42626443167193606
1.407065662146632
1.9399877625512756
1.6680700968629696
1.1251368960067298
0.5152530078218912
0.0076826652361048214
-0.2774105203952215
-0.2859254789118762
-0.237180478477599
-0.23043337561591265
-0.30076977041568326
-0.5538499361842633
-0.7889545226190927
-0.9978798798490436
-1.2641157826015428
-1.2495401946551443
-0.6885200371847398
0.5465722560249213
1.424754186531302
1.7188130653021927
1.4105121658758268
0.8708327182376857
0.13371674720780946
-0.25600842103867416
-0.5899752027378625
-0.5220085532550767
-0.4526405272141092
-0.4334345029283499
-0.5184310614174419
-0.7071499276266258
-0.9196158301057328
-1.172804439775084
-1.32467163633782
-0.9650145215864794
-0.39563445111917894
0.6727542248267491
1.7280198487295098
1.6948018898782296
1.2090961954596202
0.3408312742666373
-0.11777753875835667
-0.4698512780952624
-0.5702949615664961
-0.45305002162961716
-0.3468678646012023
-0.3293660736072744
-0.4195303406573086
-0.6491098924600838
-0.8632583791441973
-1.0170713212710008
-0.8041175235718981
0.0003225196994942614
0.9793553489432277
1.7027094735645225
1.7212738843015318
1.2433446749787964
0.5507859063166324
0.0195001666316571
-0.2983993041378598
-0.37924770051902834
-0.29073243585560515
-0.20805892236614423
-0.22844802506538298
-0.3559232940160504
-0.5731507763310187
-0.8285521459743522
-1.0124583105124838
-0.9998024680605057
-0.35180494874671436
0.6918278217401497
1.5652371241732062
1.8601535298562322
1.52014208071992
0.926145308668366
0.31613032847542105
-0.09444983139989191
-0.30278914436216586
-0.27720944337646813
-0.18688265870816928
-0.14977344
-0.2607140106148341
-0.465006205415329
-0.6972799198569987
-0.9294787924182433
-1.1360128564299825
-0.8542546375522213
-0.08971206593149095
0.9701060148681382
1.8283825681919237
1.2327698958830888
0.7599223968335986
0.4162924041466527
0.0726624114597808
-0.27096758122716513
-0.29350410421985673
-0.24440924124120272
-0.1709257
-0.24513056456843194
-0.3917069198807578
-0.5617000368589711
-0.8772889015785827
-1.1666900936937055
-1.316096072641519
-1.0434741133112573
-0.2106940685938563
0.9309904622959165
1.82009054175739
1.7530770827591566
1.2688524196599866
0.5776564112176875
-0.05381063581962661
-0.3988276605940446
-0.48888935328130145
-0.3610015906312081
-0.30167666873250676
-0.35991335237136685
-0.4989453942879555
-0.7248300620630954
-0.9327319625545916
-1.1338424230496287
-1.2596291639096444
-0.7815334733897905
0.14698157789515987
1.1552179079385672
1.8310870119428913
1.7092312835489456
1.1065944552228222
0.4300050343612859
-0.11547560235516076
-0.40569384030613087
-0.41441647251504815
-0.2876670338634596
-0.2365689755700551
-0.2794661905541175
-0.4170284420670305
-0.6328702054320339
-0.8453472532081079
-0.9847219383512376
-0.7474421991131133
-0.02631843901720332
1.1191270180200688
1.7813774559476827
1.7523157491681434
1.1665172243238364
0.6006950994822792
0.08884174313993026
-0.2121063141794311
-0.30694468054987545
-0.202482001934941
-0.1541052734191838
-0.19164185367651196
-0.3518838978308603
-0.612684352195338
-0.8166353041848704
-1.0636478764653436
-1.1830486945557372
-0.5205550331384161
0.5337854385841285
1.6118665904235878
2.0492283497800234
1.763095154813859
1.195854144714067
0.5710813229920093
0.05655944638561397
-0.19076188631519736
-0.2118973190537455
-0.13060104394807298
-0.11105354923780167
-0.23019122103912612
-0.42027733264284534
-0.6496408850367181
-0.8990944308777895
-1.1612083529863155
-1.2950017370743228
-0.9310001432179884
0.06548333466486955
1.2802620384467205
1.981695564963319
1.9266603532218642
1.4580833955544013
0.8118852494448218
0.08571996986793423
-0.21954151759482216
-0.3813805044629946
-0.3224351735475711
-0.2822058646377552
-0.35380262727832107
-0.5338934564726019
-0.7057006835491446
-0.9813833496292328
-1.2812868246580236
-1.486282029171342
-1.7516920093588602
-1.6918330162802377
-0.9268917803044928
0.3998961363385525
1.7520725237624335
2.0204711293336817
1.5569416792973367
0.8339689839881108
0.22625027007706666
-0.4068080102077767
-0.59441562
-0.59441562
-0.3889268843647223
-0.3490555679331715
-0.4170222174159397
