21.797482809285714
21.370081372755532
20.94267993622535
20.515278499695164
20.08787706316498
19.6604756266348
19.233074190104617
18.805672753574434
18.37827131704425
17.950869880514066
17.523468443983887
17.0960670074537
16.66866557092352
16.241264134393337
15.813862697863152
15.38646126133297
14.959059824802786
14.531658388272604
14.10425695174242
13.676855515212239
13.249454078682055
12.82205264215187
12.394651205621688
11.967249769091506
11.539848332561322
11.11244689603114
10.685045459500955
10.257644022970775
9.83024258644059
9.402841149910406
8.975439713380226
8.548038276850042
8.12063684031986
7.693235403789675
7.265833967259492
6.838432530729309
6.411031094199125
5.983629657668942
5.5562282211387615
5.128826784608578
4.701425348078395
4.27402391154821
3.8466224750180262
3.4192210384878456
2.9918196019576624
2.5644181654274796
2.1370167288972963
1.709615292367113
1.2822138558369298
0.8548124193067466
0.42741098277656336
0.02437457898560992
-0.20235155027325202
-0.27901385672152434
-0.296471966978701
-0.4041036336452109
-0.6259334729692713
-0.9316021271584894
-1.2200075809750761
-1.4033511752424257
-1.2007479158836936
-0.6033168498036077
0.31246868263349553
0.995401152908568
1.1039280039171095
0.7657290758394064
0.3157876448131434
-0.07115782828458274
-0.2587648216526752
-0.3419780903122167
-0.3880148794934355
-0.47541895194517386
-0.6253830538478936
-0.8091743058668638
-1.009720714834636
-0.9909998290187707
-0.5575804770837229
0.5460341377327725
1.222166801399958
1.7520463533859885
1.5978925563824378
1.1409347809046826
0.6388957165237298
0.20720272217853644
-0.0787612913028659
-0.17540596237324868
-0.2480577602707687
-0.374094515461216
-0.5867205377221819
-0.8604707391524289
-0.9966617448286137
-0.7422923601603265
-0.04598821643939549
0.8930560480056525
1.4395514306186166
1.463025939036393
1.1903303338236912
0.7855917734395857
0.37361832858844723
-0.03515951646268185
-0.2371713434971469
-0.39563212512381046
-0.5287247700920328
-0.7561508366449599
-1.0102373800329392
-1.1607257355590095
-1.1799382061780432
-0.8901543367180649
0.2633660410495079
1.2258389352251544
1.5379541963726606
1.4397792657413353
1.1486313491126678
0.7361426357259787
0.2932196710056292
-0.06440365431541542
-0.2726008124724921
-0.38028987871513803
-0.49704300579535765
-0.6918882713059851
-0.9555695530622654
-1.2035482555806758
-1.4342868453554418
-1.4121531175082618
-0.7589548126500814
0.2749405939320979
1.1438989139321456
1.4524974796957386
1.3055313963190638
0.9910827420466244
0.45879971429183597
0.13395809092035527
-0.23488129092680538
-0.3935274321757505
-0.5507909463567187
-0.647797920932271
-0.8725999856970461
-1.1240906002582614
-1.3136107769723375
-1.5005566517720272
-1.647095866853581
-1.5448827705288246
-0.8577301053265178
0.12929706151887543
0.8879018758223549
1.0840994993908806
0.8413070364478772
0.5067679959911633
0.08169967647296233
-0.26968403073730624
-0.4734178501956746
-0.6164805423358684
-0.6926830317156545
-0.8192158575644796
-1.02520258742511
-1.2123058246405176
-1.372486162170302
-1.5251867021911485
-1.630241906830967
-1.6365776386816067
-1.3360052375921527
-0.482248038805966
0.5895878817441201
1.0587831936719567
0.8965636010891748
0.4494959586632076
-0.004420490185963485
-0.3551115669861558
-0.525324996788477
-0.5827906067290188
-0.58504371
-0.6566158651766852
-0.8075599177534799
-1.0262231031372337
-1.2136625893265665
-1.3427290798085358
-1.4528145921528504
-1.2902354617894365
-0.6259969552906534
0.3888785790929452
0.9532937985732376
0.9165909443249527
0.5760769357013071
0.09281345181914462
-0.2812717231010623
-0.504407666800914
-0.5748580676695013
-0.5333580345002988
-0.552958614142742
-0.7171936640426071
-0.8817495821913894
-1.069533795524978
-1.2244756496800517
-1.2544908365831478
-0.6612270954552129
0.11647788038191076
1.0498024032080333
1.2282599275401103
0.9886427282419077
0.45317972669716805
0.027483137226010444
-0.2279165641791664
-0.4121592312321968
-0.42673057
-0.4513016176750842
-0.5610782812808215
-0.7261403957046781
-0.8688801465024872
-1.0855315279145303
-1.1520777986187885
-0.8215889195909587
-0.14117574348157247
0.86687070202347
1.273084433709534
1.233012327346446
0.8588487716667128
0.389241083976803
-0.06933463910634693
-0.24450742739661202
-0.32977631485943265
-0.35823135406252415
-0.4192676674399317
-0.5538594892605234
-0.7142532892546414
-0.8953490870555543
-0.9902522685862962
-0.8553891254824061
-0.2623993702030045
0.5378996633455415
1.2334676202753394
1.28487078931672
0.9359975902334067
0.5213000945908717
0.1337292526087866
-0.12894714750241643
-0.24274978869956193
-0.28707747293667807
-0.35509282301634093
-0.507672498462564
-0.7534958215854487
-0.8305516656028429
-1.0240911044446577
-1.0727503972498702
-0.679739822381907
0.09867191947537418
0.9307532959387129
1.3041597
1.1618395063142084
0.6860440836824531
0.2172887593358647
-0.09810792212499676
-0.2558152812784496
-0.24737774722031342
-0.2273327277764231
-0.3042001393611604
-0.4708610134172643
-0.6486734253736364
-0.8033033068352394
-0.861653644430826
-0.5936284589976794
0.14344849084506717
0.8438463091011379
1.2439907433460466
1.0994157978060894
0.5961196984222179
0.1665036825937965
-0.14571272666535673
-0.2715732230890706
-0.2773140249523238
-0.2805318778012801
-0.3594671408087945
-0.551838464731744
-0.742848450114968
-0.9673020791865333
-1.0357419065310527
-0.6954462010303093
0.06796939702146187
0.8593986789993496
1.2937734583160971
1.1016412929164867
0.686691600594471
0.19158535331960688
-0.19377117600727975
-0.389641992579328
-0.46828851382452163
-0.4948290056406639
-0.5591606427776747
-0.7077324408090675
-0.8851004318180457
-1.050724414371116
-1.1843299077385563
-1.0623750662698035
-0.4441967640401775
0.612224872900445
1.2107449756937907
1.3518540768013982
1.084168003898422
0.6284699916063285
0.1340612130315777
-0.13225187852159156
-0.26488205264995157
-0.31150780604472833
-0.37031823769297717
-0.4828812307354891
-0.6581790779961587
-0.8729745842093303
-1.0537979081168436
-1.140070928627544
-0.8860423343387964
-0.1813170018171288
0.806698621718198
1.4066050450279277
1.3753355750231921
0.9122773967475186
0.41014241438892723
0.02892326797093231
-0.229842150003711
-0.3139183621006126
-0.3408583315283505
-0.4083197823739902
-0.6003479315586577
-0.7474813047197826
-0.9333101646156177
-1.1276045619231898
-1.0952683905533445
-0.5455852882728096
0.39005254669613415
1.2288494393684828
1.4609673793632028
1.1921485912227459
0.6141622407112124
0.08316124820131479
-0.21664662716390493
-0.2836174462011248
-0.23698985506937412
-0.2402007080638813
-0.36293952603202917
-0.5828487968665218
-0.8094764725384028
-0.9875253079441972
-0.7974066597099639
-0.07857552413969016
0.7407847241329354
1.3882904095553124
1.3639711640544034
0.9328483960062038
0.36285921896405215
-0.06358251789323477
-0.25911770842709114
-0.28217190011415216
-0.27287736089559184
-0.30023433204962663
-0.4623500116852885
-0.7360506054576496
-0.9269869544633204
-0.9934585271449744
-0.5109495887694939
0.30163958433918453
1.372021730724316
1.813723722459821
1.681885094619513
1.2566143697293766
0.7688472743469084
0.3723737434243943
0.05553351793085448
-0.0045622021
-0.015896151906307502
-0.13050938009301752
-0.3159749566396117
-0.544312596223725
-0.738784596932385
-0.5071179237105822
0.18215040864058907
1.0564906847674451
1.7406826665405204
1.8411927682183737
1.4980661575166274
1.0301267895648167
0.5657011890881908
0.20553160713050156
0.018894716055538052
-0.034460519580506124
-0.145782330673888
-0.3452722924325776
-0.5318661176704085
-0.7850038477671405
-0.8164300579113557
-0.31344143874360303
0.8613242621025636
1.4625810089437583
1.8161323281880783
1.5818848952953277
1.1609293978730784
0.5564496860002435
0.2225333625206171
0.06702132162947128
-0.002996540588626747
-0.04132909848668905
-0.1886906443943809
-0.4603348472053411
-0.718390880775205
-0.9091332579968173
-0.5954324629325402
0.14966557028824123
1.0991581916172335
1.7956424796314625
1.7036061693042748
1.2585616263854429
0.7632078308859159
0.21964098890883005
0.01614886167174819
-0.0034689212438012186
-0.0045622021
-0.14562319509526303
-0.3562407466483108
-0.6392785522524856
-0.8901477886787736
-0.8137975005830841
-0.15655598968982387
0.8860628460354523
1.6134819573239783
1.8035312580206482
1.450954515503236
0.9073948274396447
0.3671540931181628
0.035686353131733906
-0.08538339515561677
-0.11362502395503353
-0.19433819521554835
-0.4016293150104727
-0.6825390824572823
-0.9320612649476118
-1.0237269101923778
-0.5436568831470874
0.313519167120511
1.3862874744625377
1.8946090658741357
1.760570095332944
1.2450889153317186
0.670554081742062
0.1261907469895118
-0.08289352478808959
-0.20961682167945284
-0.31266760700054363
-0.4648501843583362
-0.640022976631661
-0.9490754466347257
-1.085457308087864
-0.7185023163373425
0.027674074984596952
1.1697196472354534
1.8488569250443971
1.9349029160202524
1.5337168896612199
0.9253638126301782
0.46902554934833585
0.11018826904478096
-0.12864900200954366
-0.18237043350310564
-0.29469070604359227
-0.5125296703331957
-0.7563649083359854
-1.006008532283539
-1.1527105481650715
-0.7158879717864264
0.22000947464634646
1.34692987074947
1.8190942799603336
1.7160159354963203
1.2193190332789543
0.6819832748697399
0.2079813251169984
-0.02840884245060877
-0.12436726426628503
-0.18040406521711086
-0.3394911829114082
-0.5406855653340953
-0.818567288318662
-0.9151447304332362
-0.6381592488484904
0.06803761387390919
1.1145048946999394
1.690095941407764
1.6520694945356267
1.2700634803858313
0.6662600768554607
0.11977318348430707
0.01679453749203004
-0.05951172456717476
-0.07485858959862264
-0.25351266840948744
-0.4867188704465316
-0.7940210627399571
-0.875373323881371
-0.530956667960534
0.3841779316539417
1.3849822151008424
1.9015015200842043
1.8221639409437218
1.3378222402924933
0.786465571576874
0.3600012464770533
0.11213649560512996
0.031720133388700264
-0.036148454552935874
-0.18986668620819108
-0.43255199390520255
-0.6723554372044963
-0.6780610516950191
-0.05101066875898069
0.8942284354426375
1.8334306163052136
2.126316088011298
1.9784856359253025
1.4758935484203848
0.9364715043875949
0.5096456298882693
0.26205627670929077
0.13832753154032024
0.022523911095160387
-0.1667326580949027
-0.41985509882180577
-0.6407352881767674
-0.5753693832571435
0.031978130594426224
0.9811341493522545
1.9376266801779156
2.2720152560403157
2.1026561057393245
1.695085675384066
1.0773971383538368
0.6199445176220767
0.2710419708920535
0.09023157370710283
-0.0708615169217789
-0.26492165625406516
-0.5443176487504324
-0.8169512516606036
-0.9348840120013518
-0.4985115024440522
0.40459959474671076
1.4215860592649705
1.9746558252774058
1.9959531658354197
1.6557467766967942
1.1164841544754862
0.5459223949985992
0.12878001312846815
-0.14324757356162468
-0.34113899870320524
-0.5063864596095334
-0.707943433595477
-0.9673746772146268
-1.2600305729580346
-1.3948900861797302
-1.0907949634586884
-0.2652403430585108
0.6973463827527817
1.406910990777947
1.6468891385211137
1.4156395626493512
0.9305739845935936
0.3776409419299634
-0.06105869666568327
-0.32247847178471895
-0.46316781167792154
-0.608113683191255
-0.8373984693797017
-1.0780009724102775
-1.342434073364725
-1.5666233064754946
-1.597105178571711
-1.213035664526048
-0.42245040482684015
0.6257187709005012
1.242291690623308
1.2669778437064485
0.9487037599713922
0.478094777914999
0.039537606891646204
-0.2475662539245743
-0.39430259074005103
-0.4971536647227279
-0.6223896716661995
-0.8215014324626003
-1.059689340560444
-1.3084979629033853
-1.4819287550681643
-1.4440259391802688
-1.0319883220111923
-0.1218418216720325
0.7600609334450347
1.214362087624717
1.192160585144675
0.8191833609531477
0.30242224429466935
-0.06349262659889635
-0.30581510299353465
-0.43987897015174826
-0.5189975912096535
-0.7313310336457947
-1.0124416939726906
-1.1703552580793737
-1.4334527734417233
-1.5665748691964598
-1.352212577463304
-0.6922759296441672
0.30553250698799944
1.0680394651850644
1.3489656710843902
1.171987927459052
0.7647668552882172
0.2928343566498191
-0.11156693150415839
-0.3642758940854635
-0.5221720177784388
-0.6238324381945878
-0.7697151558061064
-0.9655525768693365
-1.1761693054975275
-1.3967197276348065
-1.584920985620065
-1.402732056462992
-0.7161565429177076
0.3466349803109963
1.1394208238327401
1.3631178742116645
1.1566322489012766
0.7096878152178886
0.21502609657268723
-0.18441899838974973
-0.39907806943106894
-0.5013970534717235
-0.571142909926218
-0.7147307598670669
-0.9380575867093972
-1.176322839120753
-1.395071544062614
-1.4747859540313213
-1.0923637577567489
-0.18125733201369865
0.8580425213709495
1.4350176743116254
1.3848396198411999
0.9770942578619478
0.4685990425002216
0.059663921360479544
-0.19328668330797913
-0.3402379629517463
-0.4203117755286645
-0.5610231457235946
-0.8066467672727171
-1.0423440551558218
-1.232166162000253
-1.1548389499272302
-0.4681718240190088
0.4459627116534858
1.3058540002528436
1.5081189747050987
1.216294172896043
0.6412760086551991
0.12067759752908208
-0.14102212433031402
-0.2921975080398066
-0.3717353087115957
-0.47845922563032317
-0.6701516002288037
-0.9153447858007622
-1.1410697788716668
-1.2489400250097653
-0.7874525825702352
0.20921136505671012
1.3914860987386675
1.8515847424479637
1.6965400719409145
1.1672773635202758
0.6627759673545931
0.24318795609309185
0.018521133130671996
-0.06546178992565853
-0.16519816769965134
-0.3546617496232676
-0.5664801661106242
-0.7871802298353651
-0.949412425506492
-0.6363687094188719
0.25572085771155695
1.4203780287829009
2.013701557188329
2.0097408829471273
1.6311789491292288
1.104752938851879
0.5925856286722171
0.15836491671273525
0.0005762151618949746
-0.1000209715884152
-0.30226692442776876
-0.5958182411940712
-0.8585564030011337
-1.1149458604130382
-0.9278763046288396
-0.15552098633795974
0.9700262304488595
1.7686552714244963
1.932309635649237
1.581222615191262
1.1192486385904061
0.6096791429824117
0.10823078096521177
-0.0988421375511772
-0.21000382510745572
-0.32244637277013727
-0.5251294028214324
-0.7670288325942778
-1.0772471241938069
-1.2337515513498716
-0.9310771909874651
0.014621044158207558
1.1233663648194792
1.7944998978144198
1.8083829023357725
1.3466262223181917
0.769722692713197
0.2279652598666084
-0.03855925545610961
-0.1578993920764059
-0.2437565697792663
-0.4372235304444274
-0.7044272177281197
-1.0091075378106813
-1.2230870840337111
-1.2217119884362868
-0.4778965749387978
0.5615605231806052
1.5058374790282438
1.8442626086135356
1.5729117247967972
1.0356319271966254
0.3880174679025722
-0.04595371316260069
-0.2455467723784257
-0.3765752421860565
-0.504044512420609
-0.6987370801805767
-0.9746121516223661
-1.2422196953442008
-1.4463481850025577
-1.3173029793725481
-0.6670995636583251
0.431661855844256
1.3809650673424563
1.8140589137115672
1.6689851098443362
1.186132221680219
0.5121021909151247
0.10899942341851723
-0.24877232931267407
-0.3868655822418442
-0.5128983011431755
-0.6530113062247778
-0.9550985608896129
-1.2065314484680913
-1.4417891789354307
-1.2467080475070855
-0.4856140571801981
0.7388278775673078
1.616953085470067
1.801370209937058
1.4281101082021335
0.8018984172656032
0.23647092907392336
-0.19078982536794425
-0.44623145324722385
-0.5801641847907558
-0.6837846440838693
-0.8814797306612936
-1.112095036487366
-1.4037515623782546
-1.5965927628119865
-1.4689043420666328
-0.7347772910534194
0.2845982170481084
1.2506309976453505
1.5870451259711578
1.2424082046138938
0.6110853394338219
0.040250978777794766
-0.30601431142281205
-0.4639628460989235
-0.4951032871881992
-0.5833791289088958
-0.7853258956203668
-1.0780081310569163
-1.3186663279097999
-1.4565201355296318
-0.9069821547694182
0.027295516155863953
1.0265604724677888
1.509830146798575
1.354259261555353
0.8569337581360683
0.1993647811899475
-0.1885207679668886
-0.38868624904771426
-0.4348209016981451
-0.4979483767953143
-0.6638558167643578
-0.882044666091172
-1.1166218258127056
-1.2710808106137537
-0.9843252385275152
-0.056091721737237865
1.2195722734221266
1.975442880446129
1.9560319234638888
1.433757823896779
0.7715227421034778
0.26007276412564784
-0.02133941574009994
-0.13719612267603762
-0.23858648992165535
-0.40598825395146415
-0.6641249201699009
-0.9298161924551238
-1.0705373
-0.7471031761908108
0.11462911221035965
1.2845287154300769
2.0657492288012693
2.1481566699246724
1.7838188199976306
1.2049878498002424
0.6245996048277815
0.19899355777244118
-0.0054399433675853745
-0.13615363540607456
-0.2866486688378803
-0.5191651606241537
-0.7798712823164805
-1.0483641540078783
-0.9300057309268803
-0.2878621509571594
0.831866701746522
1.793640260874927
2.082106146257068
1.8479437791459312
1.2469825512051398
0.7248046056048141
0.26020347062907423
0.0011607696667469691
-0.14022135988742337
-0.3280497008489245
-0.5246168415492088
-0.8037378325077609
-1.1041606807983364
-1.2386769157169708
-0.9220058318249468
0.1629357112909361
1.2610028447282238
1.8847418845551611
1.9213226983665854
1.0430746407057212
0.3242512447058522
0.1624959223075458
0.0007405999092394144
-0.1610147224890846
-0.32277004488739097
-0.44099740529906184
-0.7565159585145776
-0.9456874337410817
-1.2471589096870161
-1.3396666647267284
-0.831234493411952
0.35363227530215885
1.3323706130816269
1.8613071435473374
1.6790711694496139
1.1737054229984818
0.515775718400321
0.08176701123918761
-0.15596470814555877
-0.24443728461314082
-0.31437283052123094
-0.5032588205946991
-0.7754760343865001
-1.0709319021157406
-1.289890162163436
-1.2378717344137167
-0.43657357944245423
0.7915528764264624
1.7351297772470344
1.9753061943451482
1.6916435394554061
1.124112896344331
0.579388725466675
0.10183087406415675
-0.08968136667972784
-0.1958934780667791
-0.3339298131935353
-0.5405880848931052
-0.8822833992061703
-1.1610382157855546
-1.3777158984498072
-1.0605559498509323
-0.24040856053107373
1.0448073983421002
1.9768903308542458
2.2321904010307865
1.9485421962581186
1.3492541019808382
0.7782175041265544
0.2520920240536377
0.02462862525641485
-0.1259250889905459
-0.27424950928553016
-0.5150930290642899
-0.8415046822223295
-1.1396957371926297
-1.3875126637895776
-1.5267347247197003
-1.224639458051876
-0.42305658425614356
0.9902600570830906
1.9891090938721212
2.262334949273172
1.9645363132707168
1.427238088068231
0.8668917764121236
0.28845666412855175
-0.003240558779649072
-0.1560882852210428
-0.33037272355397285
-0.5661614063657573
-0.8415870347328056
-1.1723912980935864
-1.4591525721708984
-1.7241313655874317
-1.9278279508850433
-1.884212578648473
-1.3335212108339018
-0.3241994553319869
1.0328948416267967
2.05947179085766
2.1310232594536322
1.842534893563428
1.268000155567319
0.662033149447437
0.2144851813335916
-0.11425629688517724
-0.2608832619834478
-0.43169074110806926
-0.6704275450414704
-0.9681278820533684
-1.2539870143354297
-1.6034900979347446
-1.8558898567887814
-1.9820041470526697
-2.02668065512789
-1.8925587607320828
-1.1780950754435178
-0.06778624714086845
1.5147337287277893
1.8105839803018744
1.6377312963095012
1.115344346099986
0.4860418113054338
0.023209510176453056
-0.2392446172470045
-0.3627867648347939
-0.42409233964063625
-0.631532924424825
-0.9054352732334504
-1.1696180469814423
-1.4288670194871482
-1.6458045057486024
-1.917978495589226
-1.9586358985368582
-1.4964837903206698
-0.5646250812090667
0.7804470627890414
1.482138000556098
1.4512741007438117
1.0378723550064448
0.4678433674011785
-0.028044024969077506
-0.34030401525847204
-0.4317533046424929
-0.47045712469470746
-0.5903837243293978
-0.792789993632353
-1.0617868674110096
-1.2995342783089783
-1.47224688035732
-1.3377249760532486
-0.6252819473183556
0.35585079721782426
1.2502608927525574
1.4340477342363018
1.0887563975636345
0.5217969539228374
0.004795316761659396
-0.33331514650602884
-0.45432789573987337
-0.5151815389355923
-0.5986662422540305
-0.7805550962912062
-0.9981471653465109
-1.2013755543121862
-1.380315099300672
-1.2418064474523423
-0.3997228452191589
0.5913259624986876
1.45474619648915
1.624798839282819
1.3435937768053052
0.8845259967061092
0.3351049884254298
-0.35459287826548447
-0.456005277016281
-0.5574176757670997
-0.6588300745178962
-0.7602424732686928
-0.8917728467579369
-1.1682561601916488
-1.2633645710623251
-0.924891359251972
-0.2627646069726526
0.7905066815799018
1.6451262118125496
1.6282081756822673
1.2376767570468024
0.8357657665461956
0.30177316812478366
-0.007289103899302721
-0.19350974766355566
-0.31943279227841115
-0.44401193752572776
-0.6609184273635487
-0.8955098801906565
-1.1682616450918095
-1.3017879346466505
-1.0822649583961383
-0.7295855668612325
0.20032092335809676
1.126319695421826
1.665192983737511
1.5790661241607726
1.0893699074912753
0.5448118072013486
0.10701479727535286
-0.12143507419294136
-0.27407620366047847
-0.3613983479340833
-0.4848378925810449
-0.6836100081247112
-0.9376057108601697
-1.182805444629281
-1.3313644080186322
-1.1948123620561668
-0.525746811138045
0.6670745502658655
1.4010988269417783
1.5849887552592161
1.1949907996192668
0.6282026552957597
0.06354875039461073
-0.17869627508135633
-0.26841743
-0.27981354861505575
-0.36900337576003467
-0.5611789499420176
-0.7789003137144562
-1.0315842423162622
-1.1553136868851037
-0.8739872518196503
-0.0035215093948783305
1.0021744432383617
1.6389086709396712
1.6292675334904274
1.2520452287759651
0.6936903762017227
0.11334705005218085
-0.13292525020565632
-0.22866251092818274
-0.27237769328151984
-0.3856165264219652
-0.5982115395606993
-0.8641521033664246
-1.0601343137733772
-1.0307792673907266
-0.4657368607457328
0.5396219352696223
1.440167432098733
1.963300520558961
1.8672366326307313
1.4442819080644729
0.7229304217704555
0.24663504798380204
0.015395199809192461
-0.07219681267075237
-0.16491993667480961
-0.3250357128247211
-0.557630397689886
-0.7829271841150378
-0.9605866080056087
-1.0307302452561284
-0.4912552386887312
0.5633324600737661
1.5129628893485971
2.0085655931813315
1.9441772001362885
1.5237960998211073
0.9511261317676549
0.29273076080787397
0.048690324067739044
-0.07354914634435357
-0.19223184074700883
-0.4371243329468646
-0.5878463249655698
-0.8596410564367833
-1.0976208013168767
-1.1127254794685795
-0.6756172636137898
0.41269248124856533
1.7579754581978482
1.9589524928950504
1.783485380584733
1.2711884392284212
0.8087914657702163
0.27093914779666295
0.007031398900276469
-0.11316654559489206
-0.18135351548540052
-0.34716573701872033
-0.5740750241783115
-0.8807856113767852
-1.1453975452850758
-1.2534945
-1.0907707752424542
-0.23605013465996405
0.6994177102865972
1.725428978801299
1.8760131787400343
1.5462304468309913
0.9088296367276468
0.37839434541172146
0.02638127162434334
-0.09994129495188259
-0.15494408013019978
-0.272440161018312
-0.4852821419007466
-0.7672339970796855
-1.0402529072189608
-1.2707060785806064
-1.1870227045511732
-0.6208873373117453
0.4343267933199355
1.4802464409095895
1.9190331715890692
1.710151036003151
1.1336184265739893
0.5447973335070422
0.09293949626898579
-0.12956502849866966
-0.24758217762288443
-0.3522696805751183
-0.5539867893423531
-0.8246818129201711
-1.1181896900873498
-1.3659857197877803
-1.5266164538342617
-1.2946406464776934
-0.5500035895101894
0.594511200462206
1.6365970819119458
2.027529086656834
1.8136950025215135
1.3128730950902834
0.6933585268194422
0.20342755078677455
-0.06685277497551376
-0.21230604571089062
-0.37711724690870263
-0.5728713582444624
-0.8333401006398022
-1.1395937260244478
-1.4372259398776717
-1.4762157750355083
-1.0801358488331565
-0.14239154753941705
1.0697352329073715
1.725213600664634
1.8376790589047232
1.4762125029540762
0.840988671774675
0.1856795385884917
-0.09452328664650927
-0.2920440215919356
-0.3971392926876654
-0.5472259784688533
-0.7654795638565054
-1.0379459697435316
-1.3203507441655409
-1.558568095083745
-1.5723506291176463
-1.14438845451391
0.08669863344977358
1.098928316633511
1.809151951059111
1.7151496012992584
1.1373705997316903
0.44543139720146957
0.08810749061157536
-0.2545385351820995
-0.27763964698296345
-0.32561290692204686
-0.4477307690019353
-0.7200177296890486
-1.0362520969208366
-1.3370113098249454
-1.4968789385793475
-1.1841746099117612
-0.1913671030073229
0.8083445210245592
1.6614705186428913
1.7521216632580483
1.2510729513207326
0.5698209835104411
0.07864816366604309
-0.2695674828295954
-0.37156760741445255
-0.41962541547842824
-0.5562492631231983
-0.7564758646390324
-1.0260517151677535
-1.3764747350667423
-1.4891538336298902
-1.1122179792573619
-0.2468600428412866
0.9358497404251669
1.8887275404003256
1.9762972167789539
1.4627136696817817
1.0132571267496124
0.32686030213053424
-0.06157774179595985
-0.21949132385558218
-0.32414457442465056
-0.45194129807789424
-0.6677229012162292
-0.976857360318262
-1.236610835870085
-1.5180261156084607
-1.3358750323599273
-0.5109068569169497
0.6031029752739049
1.7476704541312817
2.088361055165226
1.8006315436387488
1.293904202326545
0.5498011884264605
0.08329508670094476
-0.23535386445036585
-0.3618214437223723
-0.459382789549095
-0.5813902948159426
-0.8861029954634668
-1.1706521442869033
-1.4823415660485886
-1.5346837013098606
-0.9336281726945315
0.1051699274282866
1.3578939691675411
1.974352
1.921485306915668
1.3341326745636204
0.614474606090087
0.11982178856324896
-0.16992928527182127
-0.276653953518612
-0.33799846957595525
-0.5005083059712454
-0.7654649169768545
-1.0389851559501444
-1.2885834418932265
-1.3303985674289307
-0.8731523608059056
0.3557636956405396
1.385041784672393
1.821316
1.743407288941332
1.1639027304771816
0.3623346656117283
-0.008782832085544326
-0.27876930683044376
-0.3671522052687309
-0.4210143229538173
-0.6116356454422717
-0.9110453093697446
-1.2277726024102613
-1.432630896789973
-1.4833983535783362
-0.9597882522325644
0.15606426458439673
1.387456720144089
1.9507313992466915
1.8190768973814855
1.311931552973137
0.6061643730161052
0.08709218788429793
-0.2271993008401271
-0.36665810110985136
-0.45988629732240327
-0.6450361350706053
-0.9035018662124121
-1.1873598204581648
-1.3686625773067849
-1.2206220368789258
-0.32467856692652747
0.9845194350730788
1.9191799596721615
2.111899277622042
1.7735903612877493
1.119646595836412
0.4957878133242468
0.05189835124132583
-0.17683034398226188
-0.3274556159536844
-0.46257218533148187
-0.6942659338646139
-1.0007205123628546
-1.290255330334909
-1.473842556095541
-1.152724745999067
-0.28003594068849547
0.9911105792965724
1.8734734047058286
2.0102336091198136
1.6466115371554444
1.0734097058978247
0.33234522105073444
-0.07634131183350468
-0.26037007917349225
-0.3761329351970631
-0.5054869947100472
-0.7160570780749376
-0.9871492367969249
-1.2633321791498535
-1.3791095619413845
-1.0566285014192658
-0.10833544366417597
1.0199834335837044
1.7889788444176105
1.7374638969816538
1.1956326145872855
0.5255103539382524
0.038527700676129276
-0.1720634265871033
-0.2632871690556286
-0.3029372067723235
-0.45767289783975107
-0.7386576506626876
-1.0664576179622642
-1.254239922709168
-1.0568693585965168
-0.21484642795236764
0.8579300338812961
1.7089064754695875
1.9570928347202974
1.6016573195454304
0.9602517571432503
0.37960938340269423
0.012223328382231974
-0.17077186494869867
-0.23953555815771804
-0.3681775946711252
-0.6055884367255293
-0.8910288848459217
-1.1601162845747666
-1.1433223220234652
-0.5148365595969316
0.5295801068167859
1.5339535696587787
2.076743021899599
1.9902120862409707
1.4908118473483856
0.8438671133152722
0.30105791504495766
-0.03366028227226006
-0.17505922283825498
-0.29490922100731176
-0.46752713060096895
-0.7146625499874583
-1.003006477998734
-1.1183906286820289
-0.8076883841836131
0.13652772224568444
1.217778957288
1.9378638517373812
1.9393283234566643
1.575459928896934
0.9563896219037362
0.360466119537078
-0.012037391169151673
-0.21242215590833136
-0.3552067355565648
-0.5176090287989517
-0.7570830516573667
-1.0328462396891775
-1.2975554564024292
-1.3442060648270535
-0.7636239964281348
0.264555620710858
1.2935204912885097
1.787077065971385
1.6616839580281555
1.1172437332322493
0.47937058240284297
0.03184351859175785
-0.2294101985007235
-0.3320282423633897
-0.4200463899183304
-0.6222706579320606
-0.8562512995084453
-1.156706925609321
-1.4467658959823793
-1.4539258717966512
-0.8786700433349782
0.16158881806344827
1.1882946209197538
1.7091481001719158
1.5564592592287498
1.0205406922277365
0.37273621699383375
-0.1385680306543719
-0.29286175518375135
-0.3287907901354161
-0.41349619114849184
-0.6142548363285472
-0.8754731353358384
-1.1344836286023052
-1.3035324547238887
-1.0637918533289843
-0.2124632324608412
0.9121240515331018
1.677860016206436
1.7912951986276973
1.3457113125519344
0.6510583948248443
0.19399808527151174
-0.10769432026014777
-0.20798916178748625
-0.25363408878276933
-0.39475097524213093
-0.6458057650846143
-0.8985713397573429
-1.144157599395824
-1.1014339083410385
-0.4213841113863226
0.6369237449717539
1.654161179422482
2.0790361649557125
1.86193557476044
1.344886564997379
0.7341625188025724
0.23284310362159083
-0.02046891017849134
-0.14204804398961599
-0.24647537033733635
-0.45742060693310993
-0.6949402776373607
-0.9457782551313093
-1.1309301486723662
-0.8160067742931054
0.06792064808837384
1.2403985763449126
1.9941042264343518
2.0885388677887726
1.7395526085019763
1.1408386672129964
0.577848735744954
0.04399204732497075
-0.185603535551381
-0.2850433573557178
-0.42534200331509076
-0.6467306912334476
-0.9389246304677796
-1.2126357205888547
-1.3550273187736337
-1.1206290083809847
-0.20897163342924707
0.8244561113420329
1.601836296170279
1.9094778819671179
1.6189684665483246
1.148141708545878
0.5451216551233449
0.03987246351508372
-0.18283179466555885
-0.3488264535526425
-0.4667401139474363
-0.6385282644233966
-0.9240451539748631
-1.201135570778613
-1.5101156655696044
-1.724361952812706
-1.5005792791579124
-0.663180222923636
0.5703549904530122
1.4817261172709415
1.648477222005927
1.281768418156897
0.6827763632853233
0.09451606279431338
-0.2672559098608895
-0.41259460615671145
-0.4794011161527457
-0.5668481656247173
-0.8054921993613338
-1.0380890624445887
-1.3086683019938996
-1.510101922897224
-1.619360219158172
-1.2030660763210346
-0.18873064870656714
0.676539704630404
1.3761607191670502
1.2561211269929804
0.7792167409562021
0.20526282820443428
-0.22953894935371907
-0.4981612307319037
-0.5904423079793312
-0.6535090576961043
-0.7749480565936966
-1.0033113480219475
-1.2646449559300346
-1.4634338044541455
-1.6621204597048262
-1.6931924092956612
-1.2665438490868377
-0.1688080423223745
0.9218521475978034
1.3856289748338562
1.19910380894671
0.7627411058792781
0.28182887179658916
-0.10561113481028772
-0.39111232916440924
-0.5105508212926168
-0.6026762145053041
-0.7292031417421647
-0.9500411595660337
-1.190384729196981
-1.4071758892964021
-1.6151747551795206
-1.4419067959523275
-0.6537659401301834
0.31150080504332167
1.1695421827973187
1.3234267400334847
1.0237620811993233
0.4953608253769089
0.06373124181585181
-0.31201570974317183
-0.5586470836372378
-0.624753449802419
-0.7087114574651986
-0.9154396319786146
-1.1260852493778013
-1.3322038035474644
-1.5107651657712988
-1.421170670339316
-0.9444321901070355
0.03644295984218204
0.9178044827240288
1.3311474040197775
1.2615542073296782
0.8116448944994831
0.3257762745405176
-0.13018405582891882
-0.31222720022442946
-0.37923903964933264
-0.4408504570235594
-0.5249266691204646
-0.7642054218146926
-0.9501911249160394
-1.1627778315326565
-1.1030536818754861
-0.5627012215150062
0.20597372712157808
1.1248005946399398
1.507286646104179
1.258301516757442
0.6306965448209272
0.1640693842652823
-0.12205476502954463
-0.27365975723395836
-0.33189780500863525
-0.4050815233159543
-0.5693768002536107
-0.7923207097381064
-1.0155024583709762
-1.125980196200435
-0.8635739572074216
-0.11419634829820707
0.8277006701642449
1.5651730455193558
1.6976466229244134
1.3564065614368932
0.8595466561062792
0.46065065104919223
0.04439956752088492
-0.12520873661836332
-0.22786002314916112
-0.34336606362630206
-0.5232340937507228
-0.7898562858587306
-1.0462069987210474
-1.1525705369473789
-0.757808113084795
0.3655242970513206
1.1073728010372843
1.8377528684738238
1.8526925583097136
1.5153100923160525
1.0151373406957274
0.4341203297097564
0.027001514383439798
-0.1513270159758489
-0.2651967930767099
-0.4303019700735055
-0.6334147193551254
-0.9415947570629132
-1.146897131548641
-1.1767737935641285
-0.737824304451877
0.2535242888993238
1.1960754935929439
1.7305781186965672
1.6641519210007396
1.2150728797921468
0.6132927969015162
0.15662200461539752
-0.12694110875448036
-0.2660798795345716
-0.3502244983957499
-0.521572848854954
-0.7506575451863142
-0.9979545387131684
-1.2033151043442167
-1.168109529623232
-0.612825542472822
0.3943995187697015
1.333995587329655
1.7930465396997022
1.6035503302784346
1.0372813627220232
0.41970895695497146
0.034032470674607296
-0.16291491527816077
-0.24854058760038922
-0.338659658904521
-0.5219431734127675
-0.7934673516237212
-1.0675268090102037
-1.2537012434022696
-1.0676456585131406
-0.4219565381655002
0.6798184194866593
1.615856422485233
1.849779198178006
1.5745508312883296
1.0660554376133269
0.5053727932964316
0.05500168710275391
-0.1557106287987509
-0.24051332677797374
-0.3724900361055005
-0.568315849057713
-0.8138840508963061
-1.1110017776912877
-1.3204373000919631
-1.1439704453807436
-0.3398602316416146
0.7755410046324409
1.794911179041744
2.1073824553206646
1.8363229468050273
1.2700716872172504
0.608821854326495
0.10817531328576702
-0.11002714061667188
-0.2503724799839337
-0.36615164778604065
-0.5527628677744222
-0.8186935370535116
-1.1180064031960464
-1.336981933211217
-1.1980139701405506
-0.42100737496437396
0.4688132320819961
1.710808961037709
1.9561499352148368
1.66564355208176
1.1063785231992624
0.4830133259769019
0.07318506905071531
-0.1605237499932471
-0.24665407547940224
-0.3791612063004591
-0.5926805397720705
-0.8938842138598669
-1.167120150434901
-1.3718030408732236
-1.2624495725491989
-0.5317289991943628
0.5186260058141583
1.5291283469870929
1.8238334597254127
1.4677354227214368
0.8263192362388961
0.22774138119334092
-0.1397675699247471
-0.28383247923963445
-0.32386698911305173
-0.4481394228637939
-0.6375977673786039
-0.8973252419371845
-1.2075600584425819
-1.3962820759634127
-1.1394599521948492
-0.2719271015293272
0.850025337020904
1.6919153598942924
1.9231552464445432
1.568827698500808
0.9078269210485461
0.3733378759120107
0.03125751656767717
-0.14473901064539502
-0.24463514352820118
-0.3704144265263194
-0.580410509536625
-0.9050132002000434
-1.1821058896651704
-1.3179213158765288
-0.8936118669182851
0.15665249115559532
1.3011827942961318
2.154451786441392
2.1710239416011317
1.7260195266584175
1.101875696121259
0.4905346520967604
0.11917149900754936
-0.03544765157331865
-0.13949317703496789
-0.3193957436247693
-0.5611238816910762
-0.8353827348969136
-1.129452010955747
-1.2381961382969955
-0.7814590053282904
0.26210684304925536
1.5757619448242424
2.198013809991678
2.119542652678539
1.5734280217852092
0.9068909604107526
0.3772108111889023
0.035060110495972324
-0.0924147721364514
-0.1933062304764596
-0.33214902253744577
-0.6083223266700041
-0.8908183974036754
-1.1611692798880036
-1.2005614156240711
-0.7423161656643409
0.40632923083179495
1.5265085151118323
2.0071442490994396
1.7873313828149513
1.2631122365820397
0.4690952953431662
0.04416339427985076
-0.1396881210801845
-0.19615116823626294
-0.29550179474479243
-0.44514833619478694
-0.7080992144011806
-1.0199635261772206
-1.2367694333403936
-1.0382305844969906
-0.1613019312563883
0.819069149156419
1.7705185932516259
2.0128037306873785
1.6589742456263035
1.0366284293396608
0.43130278039869174
0.054656057674020375
-0.14163287739535038
-0.2219148597610489
-0.3543680197429584
-0.5781905662088903
-0.8957497636501924
-1.1760794
-1.087471553708773
-0.28075788304434346
0.8672366995642579
1.8075030545807205
2.118429211095159
1.900405285919031
1.426707599049021
0.6771657174566519
0.2321913379697953
-0.05649927618432689
-0.13616661354046075
-0.2744645507595189
-0.452411858852584
-0.8134371657319323
-1.0808712147626567
-1.108477552410974
-0.481533242721527
0.5794056903127294
1.636794126638922
2.1120400047595655
2.0334981609426985
1.604973799053276
0.9500339241760105
0.4725640338474752
0.012171895718724068
-0.15320708802247113
-0.31759293610201295
-0.5302097023114906
-0.8109702504310736
-1.1034367193076628
-1.3048378059212482
-1.0953036565247787
-0.31729671883084704
0.7805561735006713
1.8330418664402894
2.097909788503126
1.8384418243745366
1.3410617220102456
0.756131222232631
0.191858339994322
-0.05934151638322331
-0.21960681605183152
-0.3551571103226786
-0.583783487227836
-0.847788200994879
-1.1395724522909305
-1.335949743282523
-1.2933836940642724
-0.7190225748950396
0.32753470307891597
1.2635060008465895
1.7384063924084707
1.6279825377819392
1.0493626004445635
0.34203114144631086
-0.024022164672151167
-0.19833697688625374
-0.32467096353192
-0.45591659466239487
-0.6480275181783508
-0.9017983638816999
-1.1661157014424863
-1.3882103078479324
-1.4469621260417338
-1.0416911679153695
-0.21406863418491096
0.7610572336844708
1.31861806411748
1.2907154220703205
0.8725598560967897
0.35605825138792846
-0.14935060923265295
-0.41693024875527557
-0.507469615239456
-0.5971078911740834
-0.7626814546917702
-0.958865060411291
-1.2332500748938124
-1.479496914762485
-1.5974372563358705
-1.329644911216277
-0.5718487632068627
0.3071392455408094
0.9972605629018485
1.2236631255361585
0.9592320475917573
0.501104061637774
0.00526027226759368
-0.3676020858758954
-0.578082050616935
-0.6872129416347867
-0.7873650411733566
-0.9223645762698411
-1.1501671761263472
-1.3955970496377794
-1.5998655555982706
-1.5993264044161724
-1.1025991036171299
-0.19140529108262005
0.6318366500580775
1.0008563206339978
0.8930411509574895
0.5524639051300527
0.14948337090422273
-0.25890470776897556
-0.5648723596600755
-0.7130828941730443
-0.8015529441109704
-0.9323474271806471
-1.0729078127230205
-1.2637764718114364
-1.4876200931426697
-1.6668266151730338
-1.7389873542696381
-1.4095629621958388
-0.5714546224636626
0.3578265446784837
0.9652134928153506
1.0401735664074832
0.7318051068086961
0.28832529105728455
-0.14604667544614175
-0.45809581757897516
-0.6051038212205259
-0.6683510102478608
-0.75908018179512
-0.9327553121648093
-1.103376362672458
-1.2702169404898385
-1.4357146703213988
-1.38859610527765
-0.8888296416697455
0.3173602302397942
0.7435666224854359
0.6350121175764962
0.5264576126675564
0.3780921441846538
0.019380982074728104
-0.33946596201158097
-0.5327110716881092
-0.5537301227207982
-0.6268106314969325
-0.7502249554557711
-0.9455799133384458
-1.124325493336404
-1.3497785536999534
-1.3870358280724107
-0.9621832604281085
-0.1626439705442636
0.8019767278161517
1.1709660328049643
1.1085011126742432
0.8012489110904056
0.3040049444566413
-0.13036480724007854
-0.3855933238997027
-0.4964267792973495
-0.555275706994796
-0.6696401797447263
-0.8731543870741854
-1.0826590678397465
-1.3031350626676503
-1.4139965637970602
-1.0820682853183317
-0.33083586716454816
0.6501875010488105
1.190541728338854
1.2516865683221428
0.8776619731047024
0.43192777257390785
-0.025190991064629242
-0.31888000595434224
-0.460426456687847
-0.5614010765720168
-0.6776178558082815
-0.8355917567981563
-1.0749078023454823
-1.3096279767995194
-1.464633668316684
-1.2833373630934861
-0.5616952914185392
0.4669339507404297
1.2273656642996587
1.349115554558829
1.051995222745866
0.5166857019877186
-0.03825047132537701
-0.30709775039165704
-0.46162327883964704
-0.5249925287223649
-0.6129377247935618
-0.7886573991382855
-0.9931072584335912
-1.172999631767669
-1.254743699480293
-0.7783716989491497
0.006481831295985674
0.9612446228264251
1.4088332993219543
1.2348701416981065
0.7368250815337178
0.13331942057730095
-0.17907192028289234
-0.3569521969821037
-0.37395952
-0.4461126466811919
-0.5825316241968396
-0.8126478635646271
-1.0320953511936999
-1.207596604984169
-0.8851047046540141
-0.05018341193640996
0.9340201575903317
