28.330838418420896
27.77020530341944
27.209572188417983
26.648939073416532
26.088305958415077
25.527672843413622
24.967039728412164
24.40640661341071
23.845773498409255
23.285140383407796
22.724507268406345
22.16387415340489
21.603241038403432
21.042607923401977
20.481974808400523
19.921341693399064
19.36070857839761
18.80007546339616
18.2394423483947
17.678809233393245
17.11817611839179
16.557543003390336
15.99690988838888
15.436276773387425
14.87564365838597
14.315010543384513
13.754377428383059
13.193744313381604
12.63311119838015
12.072478083378693
11.511844968377236
10.951211853375783
10.390578738374327
9.82994562337287
9.269312508371419
8.708679393369959
8.148046278368508
7.587413163367051
7.026780048365595
6.466146933364143
5.905513818362683
5.344880703361228
4.784247588359776
4.223614473358319
3.6629813583568636
3.1023482433554115
2.541715128353952
1.981082013352496
1.4204488983510437
0.859815783349588
0.29214000915644633
-0.27229309536845947
-0.5718585206971841
-0.5947377244526341
-0.6619817142185436
-0.8484604567170208
-1.0510674231799055
-1.3111178669529764
-1.540579630612822
-1.735172118340246
-1.8627957222591875
-1.7042833605269991
-0.9751809421155506
-0.07558356216438833
0.806405501419224
0.8199641033278322
0.2923495410905861
-0.11772426263377653
-0.5695167216392223
-0.7007139692932778
-0.698836980494311
-0.7299263470461163
-0.8763742371858673
-1.0348273854025305
-1.2437412111532977
-1.4286722810337484
-1.6206165782231745
-1.6898199379321415
-1.5445155627290346
-0.7100656659539601
0.21932516480827013
0.8805630696918155
1.0047803592074724
0.5724447920284195
0.04156515249460929
-0.20648616309070544
-0.31995523541591125
-0.3642071965302308
-0.42634175504580674
-0.5153797056913471
-0.6939074135588212
-0.8529233444955897
-1.0253707792621447
-1.1470338893593919
-1.2113633432394666
-0.9155326463925973
-0.2514145763503043
0.6766722631818354
1.0540719888083605
0.915175505634195
0.48457021532251027
0.04519130836027205
-0.14426380222201335
-0.22136846235093494
-0.25499311938215674
-0.33898719212815226
-0.44343960963518286
-0.6329292434767918
-0.7980594781154331
-1.0885724889131443
-1.2355230810083853
-1.2582215957272265
-0.7892993727726444
-0.13796569294851976
0.455357030505636
0.5687661655737707
0.18827751430510503
-0.24693363202134008
-0.5086275828177717
-0.5876253
-0.5899516756400105
-0.6256309388876866
-0.7366933487486343
-0.8681037085669858
-0.9878409429191102
-1.1182106188481138
-1.2015156926989523
-1.140925174525933
-0.7222101990871881
-0.01248557724887056
0.6672215527186109
0.8824125971929929
0.6206588903712019
0.18880495092026156
-0.1522189453963874
-0.3322758802294613
-0.33379824771791516
-0.32818530729429934
-0.40455416019981105
-0.5580242786841151
-0.7145941481722713
-0.8394955697405133
-0.9474393942009389
-1.0060194142992607
-0.8221332893701411
-0.2633907091836883
0.4577151585211239
0.9508095658896989
0.9131332456485535
0.5259343348658074
0.10169848028117856
-0.18565134338335457
-0.239016432157538
-0.24346876
-0.31863134680845806
-0.42761445506369067
-0.5662638536925826
-0.6665167416627081
-0.7775102244531451
-0.8662971371293852
-0.9865792834882341
-1.008676855104153
-0.68617337683175
0.05159866374362381
0.6993572183678142
0.951663383682682
0.6732541321645422
0.21673857873696456
-0.08504240318794684
-0.3071595205862831
-0.3417992
-0.34361401404947345
-0.38252246481704283
-0.48762859334584685
-0.6504944846908609
-0.7893750776601922
-0.9455026761342951
-1.1007206393055633
-1.2378689257702968
-1.2763497698928625
-0.9890090674917622
-0.30812804428612695
0.3313616437969153
0.6054463610102053
0.36721284048037955
-0.025447612059485522
-0.35799423284941856
-0.5728091387595668
-0.5753207567432873
-0.5580421309186643
-0.6131859906140783
-0.7154971916400719
-0.8608133830772293
-1.0356873684589067
-1.154571631033941
-1.2639622412982077
-1.3616238827816407
-1.4542668801719034
-1.4789461639294839
-1.072035362091976
-0.30168478018912276
0.4451149837946954
0.7715611267969292
0.5243284217934475
0.12498674066342108
-0.1849297727697516
-0.37534765133126735
-0.44184687127730454
-0.4955242977926665
-0.6000376956396295
-0.7271198781882788
-0.8492370159069018
-0.941655535214564
-1.0255635683590971
-1.1333200849254386
-1.2505159513337014
-1.2735114857971064
-1.3083806867178356
-1.2686378591942513
-0.7575891531803836
0.028429322057101802
0.7729161573917773
0.9285924401152275
0.6971921107330661
0.24017129310482688
-0.13421393344391888
-0.4055053195103485
-0.4308097018290467
-0.3916432164569003
-0.4444674570345096
-0.5758688264626163
-0.7046601113023172
-0.820650976689748
-0.9115737432039893
-0.99920279816715
-1.1147846886317736
-1.1776079
-1.1776079
-1.1776079
-1.0324536911031355
-0.5304847300995714
0.3279546277087459
0.8332127253163348
0.7772071229958408
0.3739893483896041
-0.04868381592903165
-0.36470818834839264
-0.44012964
-0.4482092749328118
-0.5113478726154714
-0.6439761878959764
-0.8118705361736873
-0.934090445689347
-1.0583037500272854
-1.2157566218200198
-1.3823325899625944
-1.4511526684450202
-1.328389953414354
-0.7833113816077333
-0.005209271889138667
0.6795940755095878
0.8599122320587926
0.5417532915340755
0.062432290006597335
-0.2936511758351317
-0.45700450414995597
-0.48929486
-0.5062516415623757
-0.5721699131473557
-0.6823505396822482
-0.8134051444812995
-0.9148917072205802
-1.014168579008421
-1.1148669256133383
-1.2007077014996919
-1.1764721392304702
-0.8567428177379605
-0.01371424146337541
0.7677437120671486
1.1716171893901526
0.9728814170886753
0.3850722932157818
0.03837472574686847
-0.18020626879370039
-0.24075739631728432
-0.24346876
-0.269916253652461
-0.39823113814243466
-0.5154127934380099
-0.6554698016928417
-0.7595774965439122
-0.9001495331627222
-1.0507315374950013
-1.1118347650884937
-0.8865763292318057
-0.01704024769957857
0.9183577379912482
1.426496831899554
1.2113490123595099
0.6201098773898722
0.1683938331516338
-0.03370940830945779
-0.14846063676906146
-0.16875794931691562
-0.2451940002046628
-0.3832157271814264
-0.5506255147740653
-0.6490603244652455
-0.7525332699798245
-0.8840374042096205
-1.001930983306876
-1.06799100193813
-0.7090291051868809
0.0051292002677558735
0.7149108698665739
1.0508810515975024
0.7532006560772306
0.22932420024956623
-0.17286406908371266
-0.45973175743243627
-0.4868083709345972
-0.49409819099498964
-0.5595576000630113
-0.6678234637565861
-0.802582562019125
-0.9864140609115903
-1.0722881308045094
-1.2762236995427731
-1.266692589100223
-0.9251543480262835
0.16752364810320058
1.3315921628045668
1.3580240950328657
0.8227310560330148
0.1912482003862231
-0.2135880624285797
-0.37379594840597347
-0.3893389341094103
-0.36638181
-0.46800008701359497
-0.6388279980336193
-0.7672297478750254
-0.9157470986665013
-1.0170406181138596
-1.118645979044404
-1.1182871968399735
-0.713141654092395
0.29541757515061284
1.109385142902194
1.6012428328160744
1.2799479576126687
0.6088697256263436
0.1515424928412329
-0.07105249174736272
-0.14189024892049534
-0.14513832
-0.20169251576185754
-0.3588159427593228
-0.5485271795805273
-0.6968892069426211
-0.8617511258002075
-0.9872533062766427
-1.150522627690179
-0.9782076191654052
-0.12286056431912051
0.9148619125098266
1.5770337185304408
1.4974365383376913
0.9478055353742749
0.44338113110271693
0.04811157781820463
-0.08655232294742662
-0.14036688376158557
-0.19787046933487
-0.34216271073796095
-0.49860542393195034
-0.673488369078551
-0.8234647010343712
-0.9810395961249181
-1.1038438882555701
-1.0523950397984025
-0.5498342286583856
0.29080664568689185
1.081908378791464
1.2936208581935067
0.9513075072756043
0.4400415883021106
0.002135425817953368
-0.16207470135756954
-0.19883086633411168
-0.24555052833409569
-0.3522301850439036
-0.5168312842888938
-0.6797111038163515
-0.8509780134344944
-1.0167114088709335
-1.0873476933052701
-0.8708366305868518
-0.10407283213273644
0.9453146637034604
1.5233771706237773
1.4166994002347657
0.8675846698644056
0.28317357990843467
-0.02294463340485796
-0.16443853053303342
-0.20452855491036231
-0.25566945035719424
-0.3885355919138935
-0.5753317439047733
-0.7992485906612494
-0.9989442708319212
-1.1575372052593558
-1.2392076612239429
-0.768403614192042
0.217416674190263
1.377902545760776
1.8790680850878
1.576505495042278
0.8468316897120649
0.2890166197276678
-0.021203113119737715
-0.09238766867852961
-0.095973103
-0.1736384092779019
-0.3486841603901567
-0.567373405724113
-0.7668323720176362
-1.0024140305770401
-1.165566608900476
-1.2382049329804967
-0.6630825499159907
0.3117683659243424
1.4260173509717606
1.7219202739642125
1.2389563537055148
0.6456710421463512
0.13823823257838586
-0.10519038796835473
-0.1968941425258504
-0.2817282783227322
-0.37726068014146696
-0.5526244940858328
-0.690370210140385
-0.8919877772759413
-1.035362380846508
-1.120055986507635
-1.047089510683601
-0.39645453018863214
0.5171765045110703
1.2825800998520653
1.3691221588249098
0.9515963794638875
0.1955439058068291
-0.2182193223768621
-0.3969911846503405
-0.44347627208252566
-0.4873616061618653
-0.5762874249598846
-0.6869582642981027
-0.8191778232023215
-0.9470645362024351
-1.0951442351383263
-1.1078147545658275
-0.7118739650084125
0.08354631401254653
0.8943671551484336
1.0703402747211916
0.665631442405267
0.021342293450120176
-0.36423899429339357
-0.5355511160314564
-0.5453604933043212
-0.5627667826222061
-0.6491758055229067
-0.7914799337657468
-0.9296693617791211
-1.0643093540317485
-1.1909979680975973
-1.0168481673064602
-0.2559492454029657
0.9751777506118018
1.8114795101832875
1.6855264718226728
0.9717506699653429
0.22745879136197644
-0.16665770509451056
-0.290360456484873
-0.30587500984757815
-0.37873445303667475
-0.5524073812371837
-0.7110197668090376
-0.8487341024899575
-0.9668782260593941
-1.0201945124322984
-0.5751780379532118
0.5418870884421474
1.6920181249043318
2.1828585314777182
1.8053430956343859
1.1156040608308255
0.5169052678279396
0.21808694480057658
0.1419193861382253
0.10008077753261332
-0.032494493743639975
-0.25760818866025964
-0.45833345806165937
-0.6623266427549782
-0.8229267771907253
-0.7492038957365728
-0.11286806788002374
0.9156305313371327
1.7868229562689952
2.026389994412886
1.5948793158929315
0.896221437860772
0.29348076045033944
0.10851936850084032
0.05454016667426562
-0.00346668938999551
-0.11285427798180506
-0.301186926640285
-0.4970756740229937
-0.6683881389888067
-0.717075536208303
-0.3420516855595505
0.4567198670117957
1.2371885675699872
1.533074926502379
1.2154189644871123
0.6642300887609907
0.21360155212649806
0.03469982955373627
-0.03146148563787003
-0.08489462014555277
-0.2355312764864766
-0.4050268949285125
-0.602365055142338
-0.7739109731290202
-0.7909869748368449
-0.37590153493975886
0.6718273999361706
1.7363040218877892
2.0753455961836
1.7070469468156084
1.1002427107842059
0.4843577941130891
0.15178729175243844
0.10180687780346862
0.019205094542924076
-0.0732604403973004
-0.2600559069943429
-0.39165801089015834
-0.565882651181383
-0.40718599046317383
0.31087012080972065
1.2619442025406855
2.4955314412153586
2.4892750164594397
1.8479614946741056
1.0965607047988462
0.5773455498172038
0.35268236105067396
0.24358984813607024
0.14055682510042894
-0.06967245512734403
-0.25723218705691847
-0.5120216254589558
-0.66137313
-0.5013023055636009
0.08401189792566706
1.468504945171982
2.2867530250843062
2.184080337850936
1.643655450915601
0.8156359504100349
0.3840681543536394
0.08446541010477282
-0.0016524200718111212
-0.13276605441405984
-0.37310131756532505
-0.6185320124440159
-0.8013500549174717
-0.9953310083252535
-0.9639000165256839
-0.37493367087279
0.7387985793720009
1.5965675273524864
1.7020826246624725
1.1654810986754542
0.5006420480765482
0.08851928479184037
-0.09890005964691266
-0.2135077032829354
-0.3461808386399556
-0.5080443042559787
-0.6802279882060557
-0.853571448615542
-1.0524652969028299
-1.0999159787912764
-0.6929784822901393
0.048067346804140154
0.9097217356147893
1.2695957041694936
0.943903964402133
0.43298731370773347
-0.02460929912430071
-0.271083413556525
-0.3765575828727375
-0.44269511609852646
-0.5700095131612218
-0.7293823413915442
-0.8826241549454044
-1.0526833900202976
-1.1212732922667334
-0.7524107835703554
0.012064144987100511
1.1825490919734711
1.543957267050595
1.2408286417701955
0.5246194239014628
-0.02466638327478811
-0.24680321373018763
-0.34202524227156617
-0.40322718234569416
-0.516228933730167
-0.6788337839310052
-0.8686541241352983
-1.0626578914381082
-1.0770518101792834
-0.6336216586470494
0.44817124128680913
1.6411975987012466
2.176774598190858
1.8547233239137222
1.0463624820726287
0.42574854601282386
0.07819134962739556
-0.012655447800575568
-0.07785343137639711
-0.22480969838914502
-0.392517782063876
-0.5906882118683796
-0.8082253078407943
-0.8712810573137675
-0.44023883859872126
0.6365916314654766
1.8000373263641145
2.43168382009542
2.1686469756052063
1.3692655964389497
0.6287012271091479
0.20559834590536952
0.051125696012009204
-0.025611483854792373
-0.15513924414068045
-0.34711059760276264
-0.5444378782691246
-0.781551620683902
-0.980618517911559
-0.893521919426137
-0.2892654516108818
0.678881967231903
1.8108505726446218
2.2052102298778267
1.7367129158053873
0.9753957760665594
0.35390068343991615
0.14732955067627224
0.04828673435120004
-0.0613649397110219
-0.20962032759020335
-0.42027496013242094
-0.6172808985900986
-0.8568428761911665
-0.9301822276069691
-0.5211179084831439
0.24408011262739504
1.231796655288191
1.4861371174924363
1.26879109474526
0.7309983749714465
0.2255247960299931
-0.21446571600279737
-0.3300608386076563
-0.46107504130359495
-0.602586937348822
-0.8088233863838836
-0.9541395778210411
-1.1506561488594926
-1.2274960794904135
-0.8776833572649155
0.027734004719823513
1.1991640818792608
1.684766654867696
1.462890386555939
0.849389697406129
0.28252541448620083
-0.08457427590739941
-0.25634810428639315
-0.339849636548646
-0.48431738403936236
-0.6628633265345252
-0.848686392150407
-1.0588845913772345
-1.1289407701289826
-0.5926267088530814
0.43611951457250775
1.764419611398607
2.3966085122092475
2.1544036108130573
1.4117350520097829
0.6901744057161889
0.28348385042853586
0.11157836237016117
0.015895720812858866
-0.129979508494085
-0.34760493180475616
-0.5774767670799718
-0.8046026574795775
-0.89244966
-0.4132330551643795
0.6866485307756793
2.0361759153129646
2.6028192405954447
2.2632068768736104
1.4075922143177637
0.7841962083707701
0.401904568122202
0.20085912348355284
0.09574986347627902
-0.005736700914357934
-0.16567569421032788
-0.3598937912815495
-0.5348300578545984
-0.6761453093670223
-0.3694558042917453
0.49482905268168825
1.627395798217851
2.0478706411504586
1.7928472913411446
1.1119210527142205
0.6083395638917235
0.2362934918026598
0.08881322069598308
-0.03803745406940158
-0.20387328424657863
-0.4026722355108707
-0.6065601897477391
-0.8149323968466229
-0.8691897918334142
-0.4137167155065491
0.44965426774467165
1.2824625036575346
1.599925202626161
1.2213823389664944
0.4960896957014548
-0.0016853692866045586
-0.2847570930302475
-0.4107717635469133
-0.5380385133413392
-0.6941960425184694
-0.8832703501257453
-1.086208826951649
-1.2544591438058164
-1.0984597330378816
-0.35014903093819777
0.780326438924666
1.6047924031605068
1.8502838528309042
1.2469465047534527
0.47575814911075065
-0.016444617817005486
-0.210075889950265
-0.2897775926705163
-0.3912170599287248
-0.5708596193369426
-0.7605488406558434
-0.9560533081979333
-1.0591890888197948
-0.7825297805277593
0.284498234786257
1.5511266961661172
2.1993776684303983
2.150696091555079
1.3818177821440447
0.6883555445771979
0.2002862246257307
-0.0019472566734420743
-0.08155482074962551
-0.2206013679292767
-0.3899180424228855
-0.5761300895942039
-0.821435537036599
-1.054748848219872
-0.8369125638969221
0.11062331141450721
1.450081640147676
2.1019813608270477
2.1621026924375255
1.4260094600193156
0.7813917041722603
0.3330208614229655
0.06702204844947285
0.02081569931673532
-0.09338779117954792
-0.24195257888894597
-0.4912895524289411
-0.6968329669511143
-0.9606141953248022
-1.0729201974460139
-0.7871928975998286
-0.005069301870093135
1.0394147425321765
1.8882637648081275
1.9451240599282014
1.3387480127091247
0.7508779783140809
0.3624422329184348
0.14784632609791196
0.06420560095974889
-0.11702957605533845
-0.33656259952779427
-0.49309353356530866
-0.7463167214104746
-0.9977210667810464
-1.1132589187839081
-0.7392421052126578
0.15828922774233875
1.2029788410870839
1.6877050765930066
1.4636028855246288
0.8182835069629762
0.2375989866147002
-0.11581084580281138
-0.2360731863752594
-0.3482821732965553
-0.4650312689631918
-0.6483410768147447
-0.8520915641218478
-1.1214765877465542
-1.3069065382780043
-1.2731070518354042
-0.6763276015581849
0.4794237786917067
1.5976707041814864
2.0446073053796545
1.5907150452859722
0.7788093250945328
0.17793191928623986
-0.09328406418362989
-0.15626026363412138
-0.2223909491466147
-0.34999648009758466
-0.5305432823602974
-0.7442354692428914
-0.9775712249246409
-1.19918612309137
-1.238530359112586
-0.6136686760959118
0.705337102546132
1.951663484290379
2.5303876921881105
2.029005643235439
1.323775261807003
0.6810586647977064
0.2656803255434277
0.09524608445955704
0.01567028342147101
-0.17090058236965106
-0.35308320269621774
-0.5913577794246612
-0.8586751580912526
-1.2135513178176545
-1.3362817627984573
-1.1410693363271731
-0.33067500888162304
0.9210877491518716
2.3807242175399104
2.3760072791938103
1.7331307958937145
0.933811063729398
0.3372082002238949
0.06590540965439959
-0.0036451530964979693
-0.05478085843268715
-0.20139213805752387
-0.45220135742600626
-0.7139792506399179
-0.942870516039562
-1.1821017360957973
-1.2804117070267422
-0.9198807292696046
0.08729016176410725
1.1657838220721093
1.7620338331128362
1.5339748114358251
0.8734426672163329
0.17815404575301327
-0.24211412652347547
-0.34904123577050183
-0.4240920407413786
-0.5678510913472283
-0.7841263064719611
-1.0332262969555115
-1.289231764609079
-1.5436907191133105
-1.6401513330764272
-1.2319671915138988
-0.25522022139183054
0.8258340176434129
1.378372855689944
1.1326718187940013
0.393546146421079
-0.31347845213380354
-0.6503463957036787
-0.696363751823406
-0.6931196854342832
-0.776963228365297
-0.9224460526679165
-1.1040854832786575
-1.2942258161211182
-1.4836687264899266
-1.4993860769445484
-0.9132520224429446
0.14511442372496697
1.2738283516536073
1.8523979928903127
1.2784067417528249
0.29459093350481813
-0.05072820570394204
-0.38927541157143164
-0.44012964
-0.47934629988243876
-0.5908647906427339
-0.7670034315524806
-0.9717617848348158
-1.272343822489386
-1.4752179766836304
-1.3568034113038556
-0.6553391538569274
0.6521090272696797
1.7027152450347045
1.8370425826486274
1.1503551255082054
0.2790911433874568
-0.2728134858312811
-0.47601293049967036
-0.505060320847542
-0.552722701448223
-0.6785188322561115
-0.9127553536018467
-1.0871189434470505
-1.2952832049534475
-1.4325925657277532
-1.1367263467940276
-0.3476028510536455
1.0475914041706367
1.8255066244637252
1.6562709337286718
0.9047501464799896
0.17641068749984995
-0.3755200026760604
-0.5108218895567352
-0.53846008
-0.6002456744702305
-0.73939370653124
-0.9583851459748303
-1.145975551427675
-1.3929799728293224
-1.4802307802922532
-0.9510065877094468
0.04206483615036927
1.3570911827637362
1.842880312313642
1.6105912846899926
0.7475008062853936
0.03619023157280088
-0.36650246131717346
-0.5185192951642099
-0.5586032498758658
-0.6348090271767819
-0.7564977793791313
-0.9472646033889581
-1.1382395072394966
-1.345062466237909
-1.3252121755024926
-0.6356969550965278
0.5935856990729127
1.7587522639012978
1.8934566250425413
1.23265109719192
0.47473837563884025
-0.11090974601552334
-0.28437518243965887
-0.3573308222048013
-0.4341449468451788
-0.5590579542100711
-0.7919273723354707
-0.9886935943756664
-1.2118516936324069
-1.4434430543189187
-1.0471621580485948
0.12670010001688284
1.0531100090901535
0.8224460001530878
0.43889762139656274
0.05534924263995533
-0.3281991361165697
-0.46278573081700924
-0.53846008
-0.53846008
-0.584260661081879
-0.764863106492662
-0.9407596184690887
-1.1936111215083791
-1.403841118342395
-1.1132484077082183
-0.009997046127643683
1.012301574891215
1.7331002841030063
1.5605284781934956
0.5091916943076789
-0.015387433635412198
-0.28213471182015315
-0.37637915827817514
-0.35997103364692573
-0.4463033480976571
-0.40618617453004946
-0.08124293116890113
-0.04361144192909277
-0.005979952689292495
0.03165153655050777
0.06928302579031612
0.1069145150301164
0.14454600426993283
0.18217749350973308
0.2198089827495334
0.2574404719893417
0.29507196122914203
0.33270345046895033
0.37033493970875064
0.40796642894855095
0.44559791818836736
0.48322940742816756
0.520860896667976
0.5584923859077762
0.5961238751475765
0.6337553643873849
0.6713868536271851
0.7090183428670016
0.6460726256305251
0.1282656344790285
-0.3453908313120113
-0.4638147782021675
-0.44566593305004043
-0.4746232078668917
-0.5905037734497365
-0.7574100395695764
-0.8995965121489173
-0.8521135966092016
-0.35879358092346586
1.0558719179586136
2.0179175598114347
2.1805917490526348
1.576596528227779
1.0556050878523182
0.35180191041365466
0.17214923025885592
0.15081102988804515
0.08737399887790878
-0.05608257696830036
-0.24850722242735893
-0.4727758593178301
-0.5626127281788057
0.06712267301632607
0.9785686336857339
2.344229707281355
2.712552128224834
2.208643971038807
1.556835980496695
0.8170984688343098
0.45080651900368374
0.29561924951083923
0.1981487270716006
0.08988285924964894
-0.15927567926925834
-0.34498832412422903
-0.5232512205295008
-0.34851787006155344
0.6152901028493251
1.6554380185974162
2.3498688288482006
2.358417429611494
1.832281410400504
0.9865330105435204
0.5787158434502357
0.3964043322800822
0.30958433302470645
0.20385476493661142
0.007622644291044787
-0.18857117610482524
-0.3975679712202417
-0.5342892814615627
-0.37454013041154666
0.24394462241463594
1.2082544459286069
1.7422319254240206
1.5699389929202379
1.01617349198421
0.413565001137744
0.048623878595680084
-0.02702974013147759
-0.09052401581804906
-0.20952848405902016
-0.3922042969896879
-0.6529712654406155
-0.8965095346718405
-0.9742013184415335
-0.6328784567094017
0.226377252770241
1.4693221439748583
1.7825798600894962
1.5203421294409267
0.7975858378456877
0.1795185498622903
-0.14182528386814164
-0.2189646404754227
-0.25480942909884347
-0.38634698948205604
-0.6392397301649626
-0.8388435044522911
-1.1031372747946704
-1.0828399705035954
-0.40951942114365086
0.7277927818003534
2.204379877605982
2.488542220248802
1.9381880269695433
1.1951613867633635
0.44136728450110896
0.20012554672741725
0.14179915713745703
0.08264926521235098
-0.07046838389484679
-0.29689824426751193
-0.5571427080421032
-0.8342253990826056
-0.9427477182328923
-0.5714201893215531
0.488764482799858
1.8723378298709623
2.785746448437391
2.4680688741759145
1.645040166174298
0.8840453010946572
0.4461331140976723
0.2679814066198517
0.16782660594772864
0.008364010430601435
-0.262329469862932
-0.5736474526810522
-0.8574431326643871
-1.1159899279509207
-1.210841471476787
-0.7417252301308497
0.5082650454543834
1.9633213650701289
2.529140946950411
2.1707290022548813
1.4376704721877038
0.7443376969236002
0.30709434771689614
0.17787189408882578
0.09015560767230132
-0.049432894837109276
-0.2956171085339067
-0.5667904089372885
-0.8313618210621527
-1.0669377102973787
-1.237233784811644
-0.9394783287366687
-0.08035051584463371
0.9789207563954744
1.702849565368418
1.819909933393771
1.2779888179605294
0.5540242686201713
0.11697522383980363
-0.05715491777347391
-0.11665421670338093
-0.1880465482471868
-0.3497708487091935
-0.5941176322747226
-0.8759828438796229
-1.1329742509489362
-1.2374631671025291
-0.8740315965287387
0.07663857926775469
1.2484784013917412
1.9427778113566507
1.7314412412876246
0.8918918830599056
0.2565347836430757
-0.0820577127892447
-0.22796760738402758
-0.322197904869105
-0.4507610811105478
-0.7025714592030077
-0.910950657292957
-1.160322632589991
-1.378298362800493
-1.382096007869961
-0.7236880529865913
0.47535372289555455
1.8651221193895724
2.4606418881935346
2.0981196265438222
1.2661159396323796
0.585007984352239
0.24761861157018483
0.13833554735675013
0.07833523161586366
-0.06184352966363524
-0.32343983350910377
-0.6270737113557712
-0.906063288463055
-1.1266191733357855
-1.0599969485778844
-0.452550685991383
0.9209278813939313
2.1107748543339833
2.4611301907193157
2.0538763848076584
1.265173052892194
0.5919753077756904
0.3010336311514594
0.19400949281240581
0.08960440772467822
-0.13166692207792727
-0.34815805915004205
-0.7124541146352015
-0.9766907355102512
-1.156568110352
-1.2899624676024133
-0.89202840052829
0.16226988417781874
1.5466907541091484
2.24779655087672
1.9368029220287764
1.1704626866742043
0.6056134997940584
0.17617648440984895
0.07240117381200453
0.014035803095748613
-0.07052280076394467
-0.30861958899678854
-0.5269987710829479
-0.8058372495934754
-0.9984479140989981
-1.2585698021398053
-1.331208045617949
-0.8479692138337881
-0.05869662399068498
1.0853800663092061
1.402404709171855
1.0608290982700068
0.42711185595126855
-0.0915217713689146
-0.3011144541012376
-0.3417992
-0.35548845499213244
-0.45381685639839153
-0.629926847786524
-0.8420871048518326
-1.0747159251608418
-1.2494338441244737
-1.3881733146558104
-1.1816393320081633
-0.3995138114215014
0.6445557509446759
1.3249765347838254
1.3081806413564465
0.6698677338218451
0.06082421498759791
-0.2735486127940512
-0.4266374520875314
-0.4520025338080014
-0.5195376204707552
-0.6490491759281751
-0.8305564584055446
-1.068967606758
-1.2776771131388374
-1.3747079913722589
-0.9615502230192099
0.019361355770769473
1.2263596633432394
2.0242284575569673
1.820157170468729
1.1544437356320432
0.4780159938806524
0.0499148999878216
-0.04176516073193263
-0.046807883
-0.11089373213335105
-0.2768821070087154
-0.48649458913403454
-0.7678802627262504
-1.003105858729406
-1.138443094061654
-0.9113589330354435
-0.0841952062730385
1.3095400668312207
2.05691979785944
2.064206118077301
1.51528944068296
0.7778474535505546
0.20668229580023456
0.11152847793571462
0.09454457558539307
0.024653451091956533
-0.12279127876117049
-0.3209317107759159
-0.6274822753452418
-0.8951372982800845
-1.0979441545024833
-1.1767831931202393
-0.5745533845897082
0.40822315336731696
1.964287601598787
2.2305265635682883
1.7770623702864816
1.01185017747056
0.31722755871487407
0.08970387455489989
0.026571287614568135
0.05092806184631804
-0.04087311182070505
-0.20962264449208518
-0.43905705971884457
-0.6944559823001482
-0.9232957126172274
-1.081808050168864
-1.058384733352873
-0.5515429962638804
0.36344955967328363
1.3626977344009459
1.849833285089968
1.4343737168802118
0.623419971523693
0.2689782008833535
0.0023573366
0.0023573366
-0.03602186401285456
-0.17954876949649107
-0.33437478148938227
-0.5940747344336692
-0.8198167388712665
-1.0584831246501645
-1.199514962137197
-0.9688192833390319
-0.20023189955265192
0.9584450147839811
1.6435650126708756
1.5452259419269219
0.9657593304630008
0.3109488546397021
-0.0573517576988366
-0.18347178260780903
-0.15540825981412107
-0.2173405662092966
-0.3958568946833814
-0.6135457798103066
-0.8374828088708496
-1.0871786683049798
-1.2857045153009743
-1.1203216581812694
-0.25447346992935205
1.099692117137918
2.136699916342148
2.329628085636376
1.6745390127692974
0.9553988962890352
0.38711240757494353
0.12455399052883015
0.10265425856930566
0.0637383316851479
-0.05694685863074373
-0.26421895914984783
-0.5490289846882116
-0.8099317318406383
-1.0431829932691925
-1.0959560174531064
-0.34148435458903714
0.7917957886433503
2.2387926237457547
2.614292918266182
2.3140929724804926
1.4699313425173632
0.7786455762904544
0.34714117380497694
0.2095289569314069
0.1676174045303268
0.05259451420655783
-0.15956790003670807
-0.4528905080241325
-0.7471639753871334
-1.0307430544496035
-1.2320244062289407
-1.2469937434781981
-0.694386603540964
0.454687960110455
1.6286545689627168
2.1571952491260937
1.7536131004734896
0.9501048054460202
0.2936221918117444
0.033100763752415364
-0.046807883
-0.08358271211018883
-0.19323324729902513
-0.41710872292663836
-0.6647211897657481
-0.9209190911927039
-1.1462302505584054
-1.3150373807466431
-1.1440729842830366
-0.4066653489665193
0.47540296280698646
1.2932643966070154
1.421827531564574
0.9186461867484287
0.3550948053350591
-0.06378459759999418
-0.2614152375494351
-0.2967891340680996
-0.3509017707573521
-0.5104730697283548
-0.72254932683941
-0.9728341190909199
-1.2447358790230487
-1.495082922294799
-1.4076367147262268
-0.649198990835083
0.33537533111732787
1.4246508829769342
1.6702460449328724
1.2796101804491857
0.33463439850966664
0.025535330208741103
-0.1288287137339938
-0.09694442220863528
-0.12337635201887372
-0.307767462440401
-0.5645727051553426
-0.7837677089881957
-1.0373453253542053
-1.1997238422505458
-1.1020839608673927
-0.3722534587160371
0.982329440862253
2.0177284000012583
2.4427161515786144
1.9665928905419303
1.1730625434676714
0.5986983137475663
0.2652922629802897
0.18836076624088405
0.13296928788924445
-0.02631635064059503
-0.2278351371996234
-0.4881242921991346
-0.8178161555619048
-1.0391677354392865
-1.0193909186439272
-0.37141609957538996
0.8081261928597497
1.8927010412179583
2.327356547145746
1.92488285416104
1.1433289893520624
0.45717069369361313
0.11981253171689052
0.012766570468812839
-0.05659030976410686
-0.21408295414387615
-0.4913562415584377
-0.7681697294018341
-1.0028526213940587
-1.2671872600577676
-1.416063366738021
-1.1952638730039031
-0.3597625324444635
0.7448953686497912
1.440478908716488
1.4304440472459246
0.8010120362781854
0.20252612915088308
-0.1974985109156149
-0.32927557340186353
-0.3542023291531779
-0.4411394260137899
-0.6433310622654554
-0.8387170308998648
-1.1242428557399622
-1.3668705338882075
-1.5602297736101385
-1.6801104996653227
-1.269552619585606
-0.4985911979763724
0.5325637148681126
1.0269855344270062
0.6861766092946839
-0.038211662232330024
-0.5145218548847236
-0.7086994744977927
-0.7349273112261689
-0.7666046047171461
-0.894260643202669
-1.0633234330228882
-1.308085143158793
-1.5528468532946598
-1.7894336518452807
-1.8707593763486152
-1.4592289660790505
-0.4276953470957763
0.7876765326474207
1.3788009628254232
1.1948668083757843
0.5083425540566242
-0.021217799580613664
-0.4205318658905754
-0.47676538135974234
-0.4534572447454496
-0.5143455794221924
-0.7063178796462334
-0.9246404234073962
-1.1524508087576197
-1.3191199519729577
-1.4610450769323278
-1.123931132495212
-0.2963013916150315
0.8228977811494944
1.8797214967865141
1.99978051160544
1.361998852504916
0.6287479141040848
0.18942133193098346
0.0057524282419312775
-0.046807883
-0.0992406519416198
-0.2640161577242669
-0.5302886111804157
-0.7366061848393188
-0.9798747185423851
-1.2171674499336425
-1.2991328036008989
-0.9965249778872508
-0.04076083298627842
1.1378214752548468
2.069968894389525
2.1121420056210467
1.5072223923468657
0.7373864857594891
0.27511694686150184
0.09641423593543902
0.03295452465160603
-0.012008720107867937
-0.17174884944370933
-0.4308941553315857
-0.6551447091373901
-0.8793720961930026
-1.1428840699082756
-1.3354704182554733
-1.3423819112698145
-0.8856851508455112
0.06112351329841545
1.2375838631850624
2.057043668327637
1.8338978575358003
1.177142663588369
0.5140644201832276
0.20420565034492982
0.051522556
0.051522556
-0.035231797756214954
-0.1904550081342323
-0.48778221438319647
-0.6727264922232553
-0.9620649108016589
-1.1391229461723102
-1.2759383999999998
-1.2123450314883228
-0.5320287650739035
0.44722491289613564
1.4273753807755962
1.6630518615391066
1.1932853925225062
0.5023695796827703
-0.03623307207772552
-0.2602791763167648
-0.29575652375738354
-0.33826698304114944
-0.4746039051317262
-0.6797619122462034
-0.9266435296255175
-1.1842049750435326
-1.427500133402286
-1.6205790072051027
-1.4750491443803666
-0.7485347207901657
0.572378061265086
1.6405933892765743
2.1313873823569565
1.7220744419834197
0.9606300101348786
0.33184885913560297
0.044964155652868126
0.0023573366
-0.035460409529609396
-0.17643996207847967
-0.42674761536951844
-0.6847430483176566
-0.8980538071686622
-1.1272461120479857
-1.3582178539451728
-1.240487184472468
-0.4755413409801311
0.8656201353799229
2.0209700632239143
2.4454791435443948
2.0775756074221086
1.2099072583566963
0.5358603880573453
0.1972064101545192
0.10419630028811341
0.02055803662986759
-0.12618821059453492
-0.3576382081861333
-0.5958262479202168
-0.8461182293219083
-1.0797625791066194
-1.2967619810984932
-1.3794985127738455
-0.864071743074302
0.29345170979144203
1.5215840263855636
2.2099844538222286
1.9910980029879957
1.2907938190488466
0.6786712789952145
0.27359664083582214
0.14440931783472058
0.08960933559481432
0.0023863316100375797
-0.14579655653939402
-0.44303157821533085
-0.6697145583824532
-0.8905694431389589
-1.141680849115412
-1.2668003259420475
-0.9718522235747228
-0.15557957991066346
1.091695015359616
1.6593585966020001
1.4174050157062712
0.8571069292368789
0.21579202227601435
-0.005108848010110412
-0.07563806737689546
-0.09106308042680636
-0.1738325545645874
-0.3863640510789138
-0.640495741521032
-0.8712994097479911
-1.07193482776102
-1.2700751867776483
-1.2807653528508687
-0.7860137805276781
0.2686446488860619
1.3696634971085047
1.9484131805017502
1.656273678536582
0.9691411676902437
0.3694445220985461
0.07846406328750379
0.008735595302624438
0.0023573366
-0.07418995675468854
-0.2803482011924793
-0.5379960039600399
-0.7571749240595546
-0.9589254823506842
-1.1587175347968541
-1.2399743349864343
-0.7098061057780732
0.393597116714851
1.61574846276064
2.340644557302649
2.182545871676211
1.5169411011553968
0.8922794314843502
0.42771049265768657
0.29734865
0.29734865
0.23862427931534713
0.05111473760665239
-0.15230944114253248
-0.44911375568258943
-0.7112211504175447
-0.9421200917575763
-1.1189412399546956
-1.1053123480695575
-0.5572777862735772
0.673807581207123
1.9937274275797985
2.4746173882003766
2.1146648522161597
1.4498950296520192
0.8452325092201838
0.46189375221427786
0.331833067002036
0.333991272558337
0.2257660074365623
0.032057844368497596
-0.25119476188922457
-0.4986354329584801
-0.7530100373487285
-0.9455490705481375
-1.0499178346437
-1.1353683669034507
-0.7694077093871016
0.1725752429069367
1.2919117497066375
2.0262744974326052
2.1246371553440087
1.5630916967013597
0.8858834821229569
0.4876131801923639
0.2996275339015526
0.31282368807620714
0.24140206867744018
0.08577247717763424
-0.12944154568680602
-0.4009931668943507
-0.6713368449346381
-0.9346108355644742
-1.1415620795344215
-1.0884094846153887
-0.4740564044310781
0.6907073775450501
1.6515126023221716
1.9819760732862681
1.5643737860299671
0.8558319331984795
0.27469516447042014
0.03588940621438935
0.027628454715344645
0.025085755855313547
-0.08287894923992482
-0.3007436350359094
-0.5478561436374902
-0.7219110805838211
-0.8682200270322917
-0.9931606674019385
-0.9672127493922154
-0.3047165493465792
0.9551448679919132
2.2114824735404373
2.6094268798342406
2.359319504787549
1.7105180300549114
1.0298927589550746
0.6059945635988921
0.5028868023631748
0.4941269042341901
0.34706342345675756
0.12245336301694376
-0.1716974669748226
-0.40391202655900704
-0.64657218703098
-0.8022065007203699
-0.6358286551212149
0.13546922169716002
1.5574343453548758
2.5483394979280134
2.8520622152023667
2.499096278972764
1.5588803167027174
1.0698826016409386
0.7334256178675086
0.6365259711140216
0.5837017305364067
0.41133534840229613
0.09335079729067684
-0.12152621610983452
-0.4056974547883266
-0.7156598476556277
-0.9051149615405653
-0.7644943995422361
-0.11260213178599326
1.142617219474909
1.9959292670398376
2.3209201671838966
1.8438024323076303
1.1136992074369245
0.5401943686999183
0.350972075944029
0.2785962006151679
0.1881370354668649
0.05319788451012608
-0.1369222904421623
-0.37694831275166774
-0.6080498294246064
-0.853637192942236
-1.0234232802393655
-0.8888933232121272
-0.19039973683888445
0.7002645947822921
1.5793006886671273
1.8263234803644044
1.3478726860048957
0.7221641476065295
0.17606591385368214
-0.02359811972149349
-0.058353680767964204
-0.13033227625395827
-0.3188336096527968
-0.5866069443674151
-0.8553865335078997
-1.1000090916908412
-1.2902348803806465
-1.4033499941942442
-1.1011363042262439
-0.18402351943103412
1.4130947776650724
1.9005558814047787
1.6971316744448135
1.0545417799679362
0.33045037831222046
0.03720254263802014
-0.0968427820034551
-0.1215941160397892
-0.24171326397855292
-0.4221305451049601
-0.6619843808175375
-0.8939888137638113
-1.121694509590891
-1.2797676298281928
-1.26607354851833
-0.7043985144093804
0.38686260675892725
1.7851521341618994
2.3959911886276446
2.1754416106434995
1.5746519585001637
0.8489267653314267
0.39426848729962277
0.24436891700638613
0.16635223508097283
0.02257671146111251
-0.18011930218418942
-0.4726908620413741
-0.7637477257013137
-0.9547001205841009
-1.2305839661404938
-1.3061551751816647
-1.0116218415705283
-0.04133728493950972
1.260090376711307
2.2404388714402863
2.2936754764035565
1.7222277556243304
1.0195648727069904
0.5182024134023439
0.27830591248980774
0.21795035717369937
0.16694090971619335
0.017795565086680426
-0.23486145652622192
-0.5305703712857996
-0.8323166821158478
-1.070839752776254
-1.2652571607935648
-1.385772737869988
-1.3541232124773424
-0.7901266882903114
0.2840959962819115
1.4205360209515248
2.119711051562152
2.0058716864446415
1.3837976581930165
0.642939456400105
0.2619166922207502
0.15373147369410844
0.149853
0.02707550396331758
-0.14005049635753383
-0.4031701351637547
-0.6561309351908673
-0.870887854022364
-1.1070061378951523
-1.3274487932433277
-1.451870883089317
-1.1199081903658505
0.11460094669577191
1.3575375691284464
1.9427902691933263
1.6668259969952592
0.9312005591381491
0.24758268608480927
-0.12992067794524512
-0.20433062718237882
-0.2352130526906214
-0.32373810137202724
-0.5007249706474423
-0.7536098672078759
-1.0580695554256438
-1.312760534777445
-1.5259706795640222
-1.6898069035684673
-1.6699864476746653
-1.1953593421971143
0.0901100589569015
1.5014262992753002
2.262263765939781
2.200459527973349
1.5249492837319447
0.7523118026646648
0.25168950052006045
0.05119896996246308
-0.005062337114104364
-0.0665815314079105
-0.23930913363693052
-0.5299018926321661
-0.8327801199318305
-1.137239813721377
-1.4260136437735498
-1.6666586063055067
-1.8149538159459846
-0.43581020979125884
1.0193443753355078
1.161154330084818
1.3029642848340672
1.4447742395833776
1.4366323075788738
0.799855833422678
0.2153834037819428
0.006133905472856568
0.0023573366
-0.09039874010239916
-0.26805285923408456
-0.5326558066751785
-0.8690319354635572
-1.146428508043297
-1.4115130268372147
-1.6242146593445044
-1.7895892159869162
-1.7993470198237413
-1.406236024923452
-0.24620128556364596
1.0976333067370545
1.9683789693576257
2.050871390334946
1.4523680212434136
0.6404755606129839
0.05846617240299054
-0.042210739454638005
-0.046807883
-0.13150029303386787
-0.28208702217117765
-0.5788534993376712
-0.8450793283016076
-1.099848296285844
-1.415244069639344
-1.6328099974465031
-1.7698585379664633
-1.3482391302906798
-0.24311616034528583
0.9556796016270753
1.7346085667849422
1.751177666167213
0.9569680697476164
0.2045528222548906
-0.23003801111325856
-0.40576205134885196
-0.4477595966498346
-0.5004117604961827
-0.6718891926858997
-0.9172223757383272
-1.1780908566347368
-1.4179559275723288
-1.6828477152830887
-1.798700195676987
-1.4105508268208382
-0.08725941119021308
1.2943647196593746
2.2599335446658326
2.1453746941163305
1.4459720598337271
0.5951463222584835
0.08020407433268426
-0.08152301172638506
-0.10300054769617312
-0.12579208264490968
-0.24595272212669764
-0.516664936338769
-0.8602915941308558
-1.172795583915721
-1.4464692020827534
-1.5315975
-0.9908080835698797
0.3742500006434879
1.7917246583927158
2.6613707084050615
